title = "elemental data"
variables = "time (yr)", "temp (deg. c)","qx(m/yr)","qz(m/yr)","x(m)","z(m)","mat","head(m)"
text  x=50.0,y=50.0,t="element # 12831 "
zone f="point",i=  3000
   10.0000000000000  24.1457796897013 -6.661338147750939E-016  0.000000000000000  245333.333333333  99433.3333333334  3  99999.9999999999
   20.0000000000000  24.1457778755641 -2.220446049250313E-016  0.000000000000000  245333.333333333  99433.3333333334  3  99999.9999999998
   30.0000000000000  24.1457724515277 -1.110223024625157E-015 -3.552713678800501E-015  245333.333333333  99433.3333333334  3  99999.9999999997
   40.0000000000000  24.1457599980245 -8.881784197001252E-016 -1.065814103640150E-014  245333.333333333  99433.3333333334  3  99999.9999999996
   50.0000000000000  24.1457357299370 -1.110223024625157E-015 -7.105427357601002E-015  245333.333333333  99433.3333333334  3  99999.9999999996
   60.0000000000000  24.1456934966155 -1.776356839400250E-015 -7.105427357601002E-015  245333.333333333  99433.3333333334  3  99999.9999999996
   70.0000000000000  24.1456258627955 -1.776356839400250E-015 -1.065814103640150E-014  245333.333333333  99433.3333333334  3  99999.9999999996
   80.0000000000000  24.1455242493708 -1.998401444325282E-015 -1.421085471520200E-014  245333.333333333  99433.3333333334  3  99999.9999999996
   90.0000000000000  24.1453791138977 -3.330669073875470E-015 -1.776356839400250E-014  245333.333333333  99433.3333333334  3  99999.9999999995
   100.000000000000  24.1451801532455 -3.774758283725532E-015 -1.421085471520200E-014  245333.333333333  99433.3333333334  3  99999.9999999995
   110.000000000000  24.1449165139975 -4.218847493575595E-015 -1.776356839400250E-014  245333.333333333  99433.3333333334  3  99999.9999999995
   120.000000000000  24.1445769994696 -4.662936703425657E-015 -2.131628207280301E-014  245333.333333333  99433.3333333334  3  99999.9999999995
   130.000000000000  24.1441502652388 -4.884981308350689E-015 -1.776356839400250E-014  245333.333333333  99433.3333333334  3  99999.9999999995
   140.000000000000  24.1436249976842 -5.551115123125783E-015 -2.486899575160351E-014  245333.333333333  99433.3333333334  3  99999.9999999995
   150.000000000000  24.1429900722137 -5.773159728050814E-015 -2.486899575160351E-014  245333.333333333  99433.3333333334  3  99999.9999999995
   160.000000000000  24.1422346895572 -5.995204332975845E-015 -2.131628207280301E-014  245333.333333333  99433.3333333334  3  99999.9999999994
   170.000000000000  24.1413484898160 -6.661338147750939E-015 -1.776356839400250E-014  245333.333333333  99433.3333333334  3  99999.9999999994
   180.000000000000  24.1403216449055 -6.883382752675971E-015 -1.776356839400250E-014  245333.333333333  99433.3333333334  3  99999.9999999994
   190.000000000000  24.1391449306859 -7.105427357601002E-015 -2.131628207280301E-014  245333.333333333  99433.3333333334  3  99999.9999999994
   200.000000000000  24.1378097804917 -7.105427357601002E-015 -2.131628207280301E-014  245333.333333333  99433.3333333334  3  99999.9999999994
   210.000000000000  24.1363083220033 -7.105427357601002E-015 -2.131628207280301E-014  245333.333333333  99433.3333333334  3  99999.9999999994
   220.000000000000  24.1346333994980 -7.105427357601002E-015 -2.131628207280301E-014  245333.333333333  99433.3333333334  3  99999.9999999994
   230.000000000000  24.1327785835053 -7.771561172376096E-015 -2.842170943040401E-014  245333.333333333  99433.3333333334  3  99999.9999999994
   240.000000000000  24.1307381698103 -7.993605777301127E-015 -3.197442310920451E-014  245333.333333333  99433.3333333334  3  99999.9999999994
   250.000000000000  24.1285071696201 -7.993605777301127E-015 -3.197442310920451E-014  245333.333333333  99433.3333333334  3  99999.9999999994
   260.000000000000  24.1260812925508 -8.437694987151190E-015 -3.552713678800501E-014  245333.333333333  99433.3333333334  3  99999.9999999994
   270.000000000000  24.1234569239205 -8.659739592076221E-015 -3.197442310920451E-014  245333.333333333  99433.3333333334  3  99999.9999999994
   280.000000000000  24.1206310976587 -8.881784197001252E-015 -3.197442310920451E-014  245333.333333333  99433.3333333334  3  99999.9999999994
   290.000000000000  24.1176014659733 -8.881784197001252E-015 -3.197442310920451E-014  245333.333333333  99433.3333333334  3  99999.9999999994
   300.000000000000  24.1143662667514 -8.881784197001252E-015 -3.197442310920451E-014  245333.333333333  99433.3333333334  3  99999.9999999994
   310.000000000000  24.1109242895218 -9.325873406851315E-015 -3.552713678800501E-014  245333.333333333  99433.3333333334  3  99999.9999999994
   320.000000000000  24.1072748406691 -9.547918011776346E-015 -3.197442310920451E-014  245333.333333333  99433.3333333334  3  99999.9999999993
   330.000000000000  24.1034177084697 -9.769962616701378E-015 -3.197442310920451E-014  245333.333333333  99433.3333333334  3  99999.9999999993
   340.000000000000  24.0993531284083 -1.021405182655144E-014 -3.552713678800501E-014  245333.333333333  99433.3333333334  3  99999.9999999993
   350.000000000000  24.0950817491434 -1.043609643147647E-014 -3.907985046680551E-014  245333.333333333  99433.3333333334  3  99999.9999999993
   360.000000000000  24.0906045994067 -1.043609643147647E-014 -3.907985046680551E-014  245333.333333333  99433.3333333334  3  99999.9999999993
   370.000000000000  24.0859230560540 -1.065814103640150E-014 -3.552713678800501E-014  245333.333333333  99433.3333333334  3  99999.9999999993
   380.000000000000  24.0810388134258 -1.065814103640150E-014 -3.552713678800501E-014  245333.333333333  99433.3333333334  3  99999.9999999993
   390.000000000000  24.0759538541273 -1.065814103640150E-014 -3.552713678800501E-014  245333.333333333  99433.3333333334  3  99999.9999999993
   400.000000000000  24.0706704212980 -1.065814103640150E-014 -3.552713678800501E-014  245333.333333333  99433.3333333334  3  99999.9999999993
   410.000000000000  24.0651909924069 -1.065814103640150E-014 -3.552713678800501E-014  245333.333333333  99433.3333333334  3  99999.9999999993
   420.000000000000  24.0595182545846 -1.065814103640150E-014 -3.552713678800501E-014  245333.333333333  99433.3333333334  3  99999.9999999993
   430.000000000000  24.0536550814796 -1.065814103640150E-014 -3.552713678800501E-014  245333.333333333  99433.3333333334  3  99999.9999999993
   440.000000000000  24.0476045116134 -1.065814103640150E-014 -3.552713678800501E-014  245333.333333333  99433.3333333334  3  99999.9999999993
   450.000000000000  24.0413697281928 -1.065814103640150E-014 -3.552713678800501E-014  245333.333333333  99433.3333333334  3  99999.9999999993
   460.000000000000  24.0349540403301 -1.065814103640150E-014 -3.552713678800501E-014  245333.333333333  99433.3333333334  3  99999.9999999993
   470.000000000000  24.0283608656152 -1.065814103640150E-014 -3.552713678800501E-014  245333.333333333  99433.3333333334  3  99999.9999999993
   480.000000000000  24.0215937139788 -1.065814103640150E-014 -3.552713678800501E-014  245333.333333333  99433.3333333334  3  99999.9999999993
   490.000000000000  24.0146561727821 -1.065814103640150E-014 -3.552713678800501E-014  245333.333333333  99433.3333333334  3  99999.9999999993
   500.000000000000  24.0075518930691 -1.065814103640150E-014 -3.552713678800501E-014  245333.333333333  99433.3333333334  3  99999.9999999993
   510.000000000000  24.0002845769150 -1.065814103640150E-014 -3.552713678800501E-014  245333.333333333  99433.3333333334  3  99999.9999999993
   520.000000000000  23.9928579658066 -1.132427485117660E-014 -4.263256414560601E-014  245333.333333333  99433.3333333334  3  99999.9999999993
   530.000000000000  23.9852758299918 -1.088018564132653E-014 -3.907985046680551E-014  245333.333333333  99433.3333333334  3  99999.9999999993
   540.000000000000  23.9775419587354 -1.043609643147647E-014 -3.907985046680551E-014  245333.333333333  99433.3333333334  3  99999.9999999993
   550.000000000000  23.9696601514223 -1.021405182655144E-014 -3.907985046680551E-014  245333.333333333  99433.3333333334  3  99999.9999999993
   560.000000000000  23.9616342094526 -1.021405182655144E-014 -3.907985046680551E-014  245333.333333333  99433.3333333334  3  99999.9999999993
   570.000000000000  23.9534679288715 -1.021405182655144E-014 -3.907985046680551E-014  245333.333333333  99433.3333333334  3  99999.9999999993
   580.000000000000  23.9451650936852 -1.021405182655144E-014 -3.907985046680551E-014  245333.333333333  99433.3333333334  3  99999.9999999993
   590.000000000000  23.9367294698126 -1.021405182655144E-014 -3.907985046680551E-014  245333.333333333  99433.3333333334  3  99999.9999999993
   600.000000000000  23.9281647996266 -1.021405182655144E-014 -3.907985046680551E-014  245333.333333333  99433.3333333334  3  99999.9999999993
   610.000000000000  23.9194747970428 -1.021405182655144E-014 -3.907985046680551E-014  245333.333333333  99433.3333333334  3  99999.9999999993
   620.000000000000  23.9106631431133 -1.021405182655144E-014 -3.907985046680551E-014  245333.333333333  99433.3333333334  3  99999.9999999993
   630.000000000000  23.9017334820895 -1.021405182655144E-014 -3.907985046680551E-014  245333.333333333  99433.3333333334  3  99999.9999999993
   640.000000000000  23.8926894179156 -1.021405182655144E-014 -3.907985046680551E-014  245333.333333333  99433.3333333334  3  99999.9999999993
   650.000000000000  23.8835345111228 -1.021405182655144E-014 -3.907985046680551E-014  245333.333333333  99433.3333333334  3  99999.9999999993
   660.000000000000  23.8742722760896 -1.021405182655144E-014 -3.907985046680551E-014  245333.333333333  99433.3333333334  3  99999.9999999993
   670.000000000000  23.8649061786417 -1.021405182655144E-014 -3.907985046680551E-014  245333.333333333  99433.3333333334  3  99999.9999999993
   680.000000000000  23.8554396339637 -1.021405182655144E-014 -3.907985046680551E-014  245333.333333333  99433.3333333334  3  99999.9999999993
   690.000000000000  23.8458760047971 -1.021405182655144E-014 -3.907985046680551E-014  245333.333333333  99433.3333333334  3  99999.9999999993
   700.000000000000  23.8362185999025 -1.021405182655144E-014 -3.907985046680551E-014  245333.333333333  99433.3333333334  3  99999.9999999993
   710.000000000000  23.8264706727620 -1.021405182655144E-014 -3.907985046680551E-014  245333.333333333  99433.3333333334  3  99999.9999999993
   720.000000000000  23.8166354205049 -1.021405182655144E-014 -3.907985046680551E-014  245333.333333333  99433.3333333334  3  99999.9999999993
   730.000000000000  23.8067159830352 -1.021405182655144E-014 -3.907985046680551E-014  245333.333333333  99433.3333333334  3  99999.9999999993
   740.000000000000  23.7967154423449 -1.021405182655144E-014 -3.907985046680551E-014  245333.333333333  99433.3333333334  3  99999.9999999993
   750.000000000000  23.7866368219973 -1.021405182655144E-014 -3.907985046680551E-014  245333.333333333  99433.3333333334  3  99999.9999999993
   760.000000000000  23.7764830867642 -1.021405182655144E-014 -3.907985046680551E-014  245333.333333333  99433.3333333334  3  99999.9999999993
   770.000000000000  23.7662571424053 -1.021405182655144E-014 -3.907985046680551E-014  245333.333333333  99433.3333333334  3  99999.9999999993
   780.000000000000  23.7559618355744 -1.021405182655144E-014 -3.907985046680551E-014  245333.333333333  99433.3333333334  3  99999.9999999993
   790.000000000000  23.7455999538431 -1.021405182655144E-014 -3.907985046680551E-014  245333.333333333  99433.3333333334  3  99999.9999999993
   800.000000000000  23.7351742258296 -1.021405182655144E-014 -3.907985046680551E-014  245333.333333333  99433.3333333334  3  99999.9999999993
   810.000000000000  23.7246873214233 -1.021405182655144E-014 -3.907985046680551E-014  245333.333333333  99433.3333333334  3  99999.9999999993
   820.000000000000  23.7141418520949 -1.021405182655144E-014 -3.907985046680551E-014  245333.333333333  99433.3333333334  3  99999.9999999993
   830.000000000000  23.7035403712853 -1.021405182655144E-014 -3.907985046680551E-014  245333.333333333  99433.3333333334  3  99999.9999999993
   840.000000000000  23.6928853748628 -1.021405182655144E-014 -3.907985046680551E-014  245333.333333333  99433.3333333334  3  99999.9999999993
   850.000000000000  23.6821793016437 -1.021405182655144E-014 -3.907985046680551E-014  245333.333333333  99433.3333333334  3  99999.9999999993
   860.000000000000  23.6714245339680 -1.021405182655144E-014 -3.907985046680551E-014  245333.333333333  99433.3333333334  3  99999.9999999993
   870.000000000000  23.6606233983247 -1.021405182655144E-014 -3.907985046680551E-014  245333.333333333  99433.3333333334  3  99999.9999999993
   880.000000000000  23.6497781660206 -1.021405182655144E-014 -3.907985046680551E-014  245333.333333333  99433.3333333334  3  99999.9999999993
   890.000000000000  23.6388910538875 -1.021405182655144E-014 -3.907985046680551E-014  245333.333333333  99433.3333333334  3  99999.9999999993
   900.000000000000  23.6279642250234 -1.021405182655144E-014 -3.907985046680551E-014  245333.333333333  99433.3333333334  3  99999.9999999993
   910.000000000000  23.6169997895618 -1.021405182655144E-014 -3.907985046680551E-014  245333.333333333  99433.3333333334  3  99999.9999999993
   920.000000000000  23.6059998054672 -1.021405182655144E-014 -3.907985046680551E-014  245333.333333333  99433.3333333334  3  99999.9999999993
   930.000000000000  23.5949662793507 -1.021405182655144E-014 -3.907985046680551E-014  245333.333333333  99433.3333333334  3  99999.9999999993
   940.000000000000  23.5839011673044 -1.021405182655144E-014 -3.907985046680551E-014  245333.333333333  99433.3333333334  3  99999.9999999993
   950.000000000000  23.5728063757494 -1.021405182655144E-014 -3.907985046680551E-014  245333.333333333  99433.3333333334  3  99999.9999999993
   960.000000000000  23.5616837622965 -1.021405182655144E-014 -3.907985046680551E-014  245333.333333333  99433.3333333334  3  99999.9999999993
   970.000000000000  23.5505351366153 -1.021405182655144E-014 -3.907985046680551E-014  245333.333333333  99433.3333333334  3  99999.9999999993
   980.000000000000  23.5393622613101 -1.021405182655144E-014 -3.907985046680551E-014  245333.333333333  99433.3333333334  3  99999.9999999993
   990.000000000000  23.5281668528006 -1.021405182655144E-014 -3.907985046680551E-014  245333.333333333  99433.3333333334  3  99999.9999999993
   1000.00000000000  23.5169505822049 -1.021405182655144E-014 -3.907985046680551E-014  245333.333333333  99433.3333333334  3  99999.9999999993
   1010.00000000000  23.5057150762229 -1.021405182655144E-014 -3.907985046680551E-014  245333.333333333  99433.3333333334  3  99999.9999999993
   1020.00000000000  23.4944619180187 -1.021405182655144E-014 -3.907985046680551E-014  245333.333333333  99433.3333333334  3  99999.9999999993
   1030.00000000000  23.4831926481013 -1.021405182655144E-014 -3.907985046680551E-014  245333.333333333  99433.3333333334  3  99999.9999999993
   1040.00000000000  23.4719087652001 -1.021405182655144E-014 -3.907985046680551E-014  245333.333333333  99433.3333333334  3  99999.9999999993
   1050.00000000000  23.4606117271365 -1.021405182655144E-014 -3.907985046680551E-014  245333.333333333  99433.3333333334  3  99999.9999999993
   1060.00000000000  23.4493029516888 -1.021405182655144E-014 -3.907985046680551E-014  245333.333333333  99433.3333333334  3  99999.9999999993
   1070.00000000000  23.4379838174496 -1.021405182655144E-014 -3.907985046680551E-014  245333.333333333  99433.3333333334  3  99999.9999999993
   1080.00000000000  23.4266556646762 -1.021405182655144E-014 -3.907985046680551E-014  245333.333333333  99433.3333333334  3  99999.9999999993
   1090.00000000000  23.4153197961306 -1.021405182655144E-014 -3.907985046680551E-014  245333.333333333  99433.3333333334  3  99999.9999999993
   1100.00000000000  23.4039774779119 -1.021405182655144E-014 -3.907985046680551E-014  245333.333333333  99433.3333333334  3  99999.9999999993
   1110.00000000000  23.3926299402766 -1.021405182655144E-014 -3.907985046680551E-014  245333.333333333  99433.3333333334  3  99999.9999999993
   1120.00000000000  23.3812783784498 -1.021405182655144E-014 -3.907985046680551E-014  245333.333333333  99433.3333333334  3  99999.9999999993
   1130.00000000000  23.3699239534241 -1.021405182655144E-014 -3.907985046680551E-014  245333.333333333  99433.3333333334  3  99999.9999999993
   1140.00000000000  23.3585677927481 -1.021405182655144E-014 -3.907985046680551E-014  245333.333333333  99433.3333333334  3  99999.9999999993
   1150.00000000000  23.3472109913014 -1.021405182655144E-014 -3.907985046680551E-014  245333.333333333  99433.3333333334  3  99999.9999999993
   1160.00000000000  23.3358546120592 -1.021405182655144E-014 -3.907985046680551E-014  245333.333333333  99433.3333333334  3  99999.9999999993
   1170.00000000000  23.3244996868432 -1.021405182655144E-014 -3.907985046680551E-014  245333.333333333  99433.3333333334  3  99999.9999999993
   1180.00000000000  23.3131472170605 -1.021405182655144E-014 -3.907985046680551E-014  245333.333333333  99433.3333333334  3  99999.9999999993
   1190.00000000000  23.3017981744290 -1.021405182655144E-014 -3.907985046680551E-014  245333.333333333  99433.3333333334  3  99999.9999999993
   1200.00000000000  23.2904535016910 -1.021405182655144E-014 -3.907985046680551E-014  245333.333333333  99433.3333333334  3  99999.9999999993
   1210.00000000000  23.2791141133127 -1.021405182655144E-014 -3.907985046680551E-014  245333.333333333  99433.3333333334  3  99999.9999999993
   1220.00000000000  23.2677808961713 -1.021405182655144E-014 -3.907985046680551E-014  245333.333333333  99433.3333333334  3  99999.9999999993
   1230.00000000000  23.2564547102287 -1.021405182655144E-014 -3.907985046680551E-014  245333.333333333  99433.3333333334  3  99999.9999999993
   1240.00000000000  23.2451363891925 -1.021405182655144E-014 -3.907985046680551E-014  245333.333333333  99433.3333333334  3  99999.9999999993
   1250.00000000000  23.2338267411634 -1.021405182655144E-014 -3.907985046680551E-014  245333.333333333  99433.3333333334  3  99999.9999999993
   1260.00000000000  23.2225265492703 -1.021405182655144E-014 -3.907985046680551E-014  245333.333333333  99433.3333333334  3  99999.9999999993
   1270.00000000000  23.2112365722914 -1.021405182655144E-014 -3.907985046680551E-014  245333.333333333  99433.3333333334  3  99999.9999999993
   1280.00000000000  23.1999575452638 -1.021405182655144E-014 -3.907985046680551E-014  245333.333333333  99433.3333333334  3  99999.9999999993
   1290.00000000000  23.1886901800791 -1.021405182655144E-014 -3.907985046680551E-014  245333.333333333  99433.3333333334  3  99999.9999999993
   1300.00000000000  23.1774351660672 -1.021405182655144E-014 -3.907985046680551E-014  245333.333333333  99433.3333333334  3  99999.9999999993
   1310.00000000000  23.1661931705671 -1.021405182655144E-014 -3.907985046680551E-014  245333.333333333  99433.3333333334  3  99999.9999999993
   1320.00000000000  23.1549648394853 -1.021405182655144E-014 -3.907985046680551E-014  245333.333333333  99433.3333333334  3  99999.9999999993
   1330.00000000000  23.1437507978424 -1.021405182655144E-014 -3.907985046680551E-014  245333.333333333  99433.3333333334  3  99999.9999999993
   1340.00000000000  23.1325516503072 -1.021405182655144E-014 -3.907985046680551E-014  245333.333333333  99433.3333333334  3  99999.9999999993
   1350.00000000000  23.1213679817190 -1.021405182655144E-014 -3.907985046680551E-014  245333.333333333  99433.3333333334  3  99999.9999999993
   1360.00000000000  23.1102003575977 -1.021405182655144E-014 -3.907985046680551E-014  245333.333333333  99433.3333333334  3  99999.9999999993
   1370.00000000000  23.0990493246435 -1.021405182655144E-014 -3.907985046680551E-014  245333.333333333  99433.3333333334  3  99999.9999999993
   1380.00000000000  23.0879154112236 -1.021405182655144E-014 -3.907985046680551E-014  245333.333333333  99433.3333333334  3  99999.9999999993
