title = "elemental data"
variables = "time (yr)", "temp (deg. c)","qx(m/yr)","qz(m/yr)","x(m)","z(m)","mat","head(m)"
text  x=50.0,y=50.0,t="element # 12831 "
zone f="point",i=  3000
   10.0000000000000  24.1457796893929  3.126388037344441E-013 -2.273736754432321E-013  245333.333333333  99433.3333333334  3  99999.9999999994
   20.0000000000000  24.1457778731383  3.907985046680551E-013 -2.842170943040401E-013  245333.333333333  99433.3333333334  3  99999.9999999992
   30.0000000000000  24.1457724409120  4.227729277772596E-013 -2.842170943040401E-013  245333.333333333  99433.3333333334  3  99999.9999999991
   40.0000000000000  24.1457599639165  4.334310688136611E-013 -2.842170943040401E-013  245333.333333333  99433.3333333334  3  99999.9999999991
   50.0000000000000  24.1457356401745  4.369837824924616E-013 -2.842170943040401E-013  245333.333333333  99433.3333333334  3  99999.9999999991
   60.0000000000000  24.1456932916590  4.405364961712621E-013 -2.842170943040401E-013  245333.333333333  99433.3333333334  3  99999.9999999991
   70.0000000000000  24.1456254423542  4.476419235288631E-013 -2.842170943040401E-013  245333.333333333  99433.3333333334  3  99999.9999999991
   80.0000000000000  24.1455234564352  4.476419235288631E-013 -2.842170943040401E-013  245333.333333333  99433.3333333334  3  99999.9999999991
   90.0000000000000  24.1453777166299  4.511946372076636E-013 -2.842170943040401E-013  245333.333333333  99433.3333333334  3  99999.9999999991
   100.000000000000  24.1451778253143  4.511946372076636E-013 -2.842170943040401E-013  245333.333333333  99433.3333333334  3  99999.9999999991
   110.000000000000  24.1449128140201  4.476419235288631E-013 -2.273736754432321E-013  245333.333333333  99433.3333333334  3  99999.9999999990
   120.000000000000  24.1445713502490  4.476419235288631E-013 -2.273736754432321E-013  245333.333333333  99433.3333333334  3  99999.9999999990
   130.000000000000  24.1441419334613  4.476419235288631E-013 -2.273736754432321E-013  245333.333333333  99433.3333333334  3  99999.9999999990
   140.000000000000  24.1436130746899  4.476419235288631E-013 -2.273736754432321E-013  245333.333333333  99433.3333333334  3  99999.9999999990
   150.000000000000  24.1429734563685  4.511946372076636E-013 -2.273736754432321E-013  245333.333333333  99433.3333333334  3  99999.9999999990
   160.000000000000  24.1422120706615  4.511946372076636E-013 -2.273736754432321E-013  245333.333333333  99433.3333333334  3  99999.9999999990
   170.000000000000  24.1413183358799  4.511946372076636E-013 -2.273736754432321E-013  245333.333333333  99433.3333333334  3  99999.9999999990
   180.000000000000  24.1402821915185  4.511946372076636E-013 -2.273736754432321E-013  245333.333333333  99433.3333333334  3  99999.9999999990
   190.000000000000  24.1390941731091  4.511946372076636E-013 -2.273736754432321E-013  245333.333333333  99433.3333333334  3  99999.9999999990
   200.000000000000  24.1377454685106  4.511946372076636E-013 -2.273736754432321E-013  245333.333333333  99433.3333333334  3  99999.9999999990
   210.000000000000  24.1362279575027  4.583000645652646E-013 -2.273736754432321E-013  245333.333333333  99433.3333333334  3  99999.9999999990
   220.000000000000  24.1345342366503  4.547473508864641E-013 -2.842170943040401E-013  245333.333333333  99433.3333333334  3  99999.9999999990
   230.000000000000  24.1326576314143  4.547473508864641E-013 -2.842170943040401E-013  245333.333333333  99433.3333333334  3  99999.9999999990
   240.000000000000  24.1305921974084  4.547473508864641E-013 -2.842170943040401E-013  245333.333333333  99433.3333333334  3  99999.9999999990
   250.000000000000  24.1283327125909  4.547473508864641E-013 -2.842170943040401E-013  245333.333333333  99433.3333333334  3  99999.9999999990
   260.000000000000  24.1258746620284  4.547473508864641E-013 -2.842170943040401E-013  245333.333333333  99433.3333333334  3  99999.9999999990
   270.000000000000  24.1232142167087  4.547473508864641E-013 -2.842170943040401E-013  245333.333333333  99433.3333333334  3  99999.9999999990
   280.000000000000  24.1203482077147  4.618527782440651E-013 -2.842170943040401E-013  245333.333333333  99433.3333333334  3  99999.9999999990
   290.000000000000  24.1172740969028  4.618527782440651E-013 -2.842170943040401E-013  245333.333333333  99433.3333333334  3  99999.9999999990
   300.000000000000  24.1139899450752  4.618527782440651E-013 -2.842170943040401E-013  245333.333333333  99433.3333333334  3  99999.9999999990
   310.000000000000  24.1104943784888  4.618527782440651E-013 -2.842170943040401E-013  245333.333333333  99433.3333333334  3  99999.9999999990
   320.000000000000  24.1067865544084  4.618527782440651E-013 -2.842170943040401E-013  245333.333333333  99433.3333333334  3  99999.9999999990
   330.000000000000  24.1028661262928  4.618527782440651E-013 -2.842170943040401E-013  245333.333333333  99433.3333333334  3  99999.9999999990
   340.000000000000  24.0987332090960  4.618527782440651E-013 -2.842170943040401E-013  245333.333333333  99433.3333333334  3  99999.9999999990
   350.000000000000  24.0943883450689  4.618527782440651E-013 -2.842170943040401E-013  245333.333333333  99433.3333333334  3  99999.9999999990
   360.000000000000  24.0898324703719  4.618527782440651E-013 -2.842170943040401E-013  245333.333333333  99433.3333333334  3  99999.9999999990
   370.000000000000  24.0850668827312  4.618527782440651E-013 -2.842170943040401E-013  245333.333333333  99433.3333333334  3  99999.9999999990
   380.000000000000  24.0800932103195  4.618527782440651E-013 -2.842170943040401E-013  245333.333333333  99433.3333333334  3  99999.9999999990
   390.000000000000  24.0749133819865  4.618527782440651E-013 -2.842170943040401E-013  245333.333333333  99433.3333333334  3  99999.9999999990
   400.000000000000  24.0695295989259  4.689582056016661E-013 -2.842170943040401E-013  245333.333333333  99433.3333333334  3  99999.9999999990
   410.000000000000  24.0639443078301  4.689582056016661E-013 -2.842170943040401E-013  245333.333333333  99433.3333333334  3  99999.9999999990
   420.000000000000  24.0581601755558  4.689582056016661E-013 -2.842170943040401E-013  245333.333333333  99433.3333333334  3  99999.9999999990
   430.000000000000  24.0521800653013  4.654054919228656E-013 -3.410605131648481E-013  245333.333333333  99433.3333333334  3  99999.9999999990
   440.000000000000  24.0460070142763  4.654054919228656E-013 -3.410605131648481E-013  245333.333333333  99433.3333333334  3  99999.9999999990
   450.000000000000  24.0396442128356  4.654054919228656E-013 -3.410605131648481E-013  245333.333333333  99433.3333333334  3  99999.9999999990
   460.000000000000  24.0330949850313  4.654054919228656E-013 -3.410605131648481E-013  245333.333333333  99433.3333333334  3  99999.9999999990
   470.000000000000  24.0263627705344  4.654054919228656E-013 -3.410605131648481E-013  245333.333333333  99433.3333333334  3  99999.9999999990
   480.000000000000  24.0194511078697  4.654054919228656E-013 -3.410605131648481E-013  245333.333333333  99433.3333333334  3  99999.9999999990
   490.000000000000  24.0123636189030  4.654054919228656E-013 -3.410605131648481E-013  245333.333333333  99433.3333333334  3  99999.9999999990
   500.000000000000  24.0051039945201  4.654054919228656E-013 -3.410605131648481E-013  245333.333333333  99433.3333333334  3  99999.9999999990
   510.000000000000  23.9976759814316  4.654054919228656E-013 -3.410605131648481E-013  245333.333333333  99433.3333333334  3  99999.9999999990
   520.000000000000  23.9900833700422  4.654054919228656E-013 -3.410605131648481E-013  245333.333333333  99433.3333333334  3  99999.9999999990
   530.000000000000  23.9823299833216  4.654054919228656E-013 -3.410605131648481E-013  245333.333333333  99433.3333333334  3  99999.9999999990
   540.000000000000  23.9744196666134  4.654054919228656E-013 -3.410605131648481E-013  245333.333333333  99433.3333333334  3  99999.9999999990
   550.000000000000  23.9663562783259  4.654054919228656E-013 -3.410605131648481E-013  245333.333333333  99433.3333333334  3  99999.9999999990
   560.000000000000  23.9581436814439  4.654054919228656E-013 -3.410605131648481E-013  245333.333333333  99433.3333333334  3  99999.9999999990
   570.000000000000  23.9497857358081  4.654054919228656E-013 -3.410605131648481E-013  245333.333333333  99433.3333333334  3  99999.9999999990
   580.000000000000  23.9412862911097  4.654054919228656E-013 -3.410605131648481E-013  245333.333333333  99433.3333333334  3  99999.9999999990
   590.000000000000  23.9326491805485  4.654054919228656E-013 -3.410605131648481E-013  245333.333333333  99433.3333333334  3  99999.9999999990
   600.000000000000  23.9238782151089  4.654054919228656E-013 -3.410605131648481E-013  245333.333333333  99433.3333333334  3  99999.9999999990
   610.000000000000  23.9149771784070  4.654054919228656E-013 -3.410605131648481E-013  245333.333333333  99433.3333333334  3  99999.9999999990
   620.000000000000  23.9059498220686  4.654054919228656E-013 -3.410605131648481E-013  245333.333333333  99433.3333333334  3  99999.9999999990
   630.000000000000  23.8967998615969  4.654054919228656E-013 -3.410605131648481E-013  245333.333333333  99433.3333333334  3  99999.9999999990
   640.000000000000  23.8875309726931  4.654054919228656E-013 -3.410605131648481E-013  245333.333333333  99433.3333333334  3  99999.9999999990
   650.000000000000  23.8781467879951  4.654054919228656E-013 -3.410605131648481E-013  245333.333333333  99433.3333333334  3  99999.9999999990
   660.000000000000  23.8686508942017  4.654054919228656E-013 -3.410605131648481E-013  245333.333333333  99433.3333333334  3  99999.9999999990
   670.000000000000  23.8590468295516  4.654054919228656E-013 -3.410605131648481E-013  245333.333333333  99433.3333333334  3  99999.9999999990
   680.000000000000  23.8493380816294  4.654054919228656E-013 -3.410605131648481E-013  245333.333333333  99433.3333333334  3  99999.9999999990
   690.000000000000  23.8395280854708  4.654054919228656E-013 -3.410605131648481E-013  245333.333333333  99433.3333333334  3  99999.9999999990
   700.000000000000  23.8296202219447  4.654054919228656E-013 -3.410605131648481E-013  245333.333333333  99433.3333333334  3  99999.9999999990
   710.000000000000  23.8196178163868  4.654054919228656E-013 -3.410605131648481E-013  245333.333333333  99433.3333333334  3  99999.9999999990
   720.000000000000  23.8095241374651  4.654054919228656E-013 -3.410605131648481E-013  245333.333333333  99433.3333333334  3  99999.9999999990
   730.000000000000  23.7993423962574  4.654054919228656E-013 -3.410605131648481E-013  245333.333333333  99433.3333333334  3  99999.9999999990
   740.000000000000  23.7890757455216  4.654054919228656E-013 -3.410605131648481E-013  245333.333333333  99433.3333333334  3  99999.9999999990
   750.000000000000  23.7787272791433  4.654054919228656E-013 -3.410605131648481E-013  245333.333333333  99433.3333333334  3  99999.9999999990
   760.000000000000  23.7683000317436  4.654054919228656E-013 -3.410605131648481E-013  245333.333333333  99433.3333333334  3  99999.9999999990
   770.000000000000  23.7577969784338  4.654054919228656E-013 -3.410605131648481E-013  245333.333333333  99433.3333333334  3  99999.9999999990
   780.000000000000  23.7472210347027  4.654054919228656E-013 -3.410605131648481E-013  245333.333333333  99433.3333333334  3  99999.9999999990
   790.000000000000  23.7365750564247  4.654054919228656E-013 -3.410605131648481E-013  245333.333333333  99433.3333333334  3  99999.9999999990
   800.000000000000  23.7258618399765  4.654054919228656E-013 -3.410605131648481E-013  245333.333333333  99433.3333333334  3  99999.9999999990
   810.000000000000  23.7150841224532  4.654054919228656E-013 -3.410605131648481E-013  245333.333333333  99433.3333333334  3  99999.9999999990
   820.000000000000  23.7042445819723  4.654054919228656E-013 -3.410605131648481E-013  245333.333333333  99433.3333333334  3  99999.9999999990
   830.000000000000  23.6933458380580  4.654054919228656E-013 -3.410605131648481E-013  245333.333333333  99433.3333333334  3  99999.9999999990
   840.000000000000  23.6823904520968  4.654054919228656E-013 -3.410605131648481E-013  245333.333333333  99433.3333333334  3  99999.9999999990
   850.000000000000  23.6713809278568  4.654054919228656E-013 -3.410605131648481E-013  245333.333333333  99433.3333333334  3  99999.9999999990
   860.000000000000  23.6603197120645  4.654054919228656E-013 -3.410605131648481E-013  245333.333333333  99433.3333333334  3  99999.9999999990
   870.000000000000  23.6492091950307  4.654054919228656E-013 -3.410605131648481E-013  245333.333333333  99433.3333333334  3  99999.9999999990
   880.000000000000  23.6380517113225  4.654054919228656E-013 -3.410605131648481E-013  245333.333333333  99433.3333333334  3  99999.9999999990
   890.000000000000  23.6268495404723  4.654054919228656E-013 -3.410605131648481E-013  245333.333333333  99433.3333333334  3  99999.9999999990
   900.000000000000  23.6156049077227  4.654054919228656E-013 -3.410605131648481E-013  245333.333333333  99433.3333333334  3  99999.9999999990
   910.000000000000  23.6043199847993  4.654054919228656E-013 -3.410605131648481E-013  245333.333333333  99433.3333333334  3  99999.9999999990
   920.000000000000  23.5929968907092  4.654054919228656E-013 -3.410605131648481E-013  245333.333333333  99433.3333333334  3  99999.9999999990
   930.000000000000  23.5816376925607  4.654054919228656E-013 -3.410605131648481E-013  245333.333333333  99433.3333333334  3  99999.9999999990
   940.000000000000  23.5702444064012  4.654054919228656E-013 -3.410605131648481E-013  245333.333333333  99433.3333333334  3  99999.9999999990
   950.000000000000  23.5588189980685  4.654054919228656E-013 -3.410605131648481E-013  245333.333333333  99433.3333333334  3  99999.9999999990
   960.000000000000  23.5473633840549  4.654054919228656E-013 -3.410605131648481E-013  245333.333333333  99433.3333333334  3  99999.9999999990
   970.000000000000  23.5358794323794  4.654054919228656E-013 -3.410605131648481E-013  245333.333333333  99433.3333333334  3  99999.9999999990
   980.000000000000  23.5243689634668  4.654054919228656E-013 -3.410605131648481E-013  245333.333333333  99433.3333333334  3  99999.9999999990
   990.000000000000  23.5128337510306  4.654054919228656E-013 -3.410605131648481E-013  245333.333333333  99433.3333333334  3  99999.9999999990
   1000.00000000000  23.5012755229584  4.654054919228656E-013 -3.410605131648481E-013  245333.333333333  99433.3333333334  3  99999.9999999990
   1010.00000000000  23.4896959621978  4.654054919228656E-013 -3.410605131648481E-013  245333.333333333  99433.3333333334  3  99999.9999999990
   1020.00000000000  23.4780967076405  4.654054919228656E-013 -3.410605131648481E-013  245333.333333333  99433.3333333334  3  99999.9999999990
   1030.00000000000  23.4664793550043  4.654054919228656E-013 -3.410605131648481E-013  245333.333333333  99433.3333333334  3  99999.9999999990
   1040.00000000000  23.4548454577101  4.654054919228656E-013 -3.410605131648481E-013  245333.333333333  99433.3333333334  3  99999.9999999990
   1050.00000000000  23.4431965277545  4.654054919228656E-013 -3.410605131648481E-013  245333.333333333  99433.3333333334  3  99999.9999999990
   1060.00000000000  23.4315340365756  4.654054919228656E-013 -3.410605131648481E-013  245333.333333333  99433.3333333334  3  99999.9999999990
   1070.00000000000  23.4198594159109  4.654054919228656E-013 -3.410605131648481E-013  245333.333333333  99433.3333333334  3  99999.9999999990
   1080.00000000000  23.4081740586477  4.654054919228656E-013 -3.410605131648481E-013  245333.333333333  99433.3333333334  3  99999.9999999990
   1090.00000000000  23.3964793196641  4.654054919228656E-013 -3.410605131648481E-013  245333.333333333  99433.3333333334  3  99999.9999999990
   1100.00000000000  23.3847765166602  4.654054919228656E-013 -3.410605131648481E-013  245333.333333333  99433.3333333334  3  99999.9999999990
   1110.00000000000  23.3730669309794  4.654054919228656E-013 -3.410605131648481E-013  245333.333333333  99433.3333333334  3  99999.9999999990
   1120.00000000000  23.3613518084185  4.654054919228656E-013 -3.410605131648481E-013  245333.333333333  99433.3333333334  3  99999.9999999990
   1130.00000000000  23.3496323600264  4.654054919228656E-013 -3.410605131648481E-013  245333.333333333  99433.3333333334  3  99999.9999999990
   1140.00000000000  23.3379097628918  4.654054919228656E-013 -3.410605131648481E-013  245333.333333333  99433.3333333334  3  99999.9999999990
   1150.00000000000  23.3261851609181  4.654054919228656E-013 -3.410605131648481E-013  245333.333333333  99433.3333333334  3  99999.9999999990
   1160.00000000000  23.3144596655870  4.654054919228656E-013 -3.410605131648481E-013  245333.333333333  99433.3333333334  3  99999.9999999990
   1170.00000000000  23.3027343567082  4.654054919228656E-013 -3.410605131648481E-013  245333.333333333  99433.3333333334  3  99999.9999999990
   1180.00000000000  23.2910102831583  4.654054919228656E-013 -3.410605131648481E-013  245333.333333333  99433.3333333334  3  99999.9999999990
   1190.00000000000  23.2792884636050  4.654054919228656E-013 -3.410605131648481E-013  245333.333333333  99433.3333333334  3  99999.9999999990
   1200.00000000000  23.2675698872199  4.654054919228656E-013 -3.410605131648481E-013  245333.333333333  99433.3333333334  3  99999.9999999990
   1210.00000000000  23.2558555143771  4.654054919228656E-013 -3.410605131648481E-013  245333.333333333  99433.3333333334  3  99999.9999999990
   1220.00000000000  23.2441462773402  4.654054919228656E-013 -3.410605131648481E-013  245333.333333333  99433.3333333334  3  99999.9999999990
   1230.00000000000  23.2324430809343  4.654054919228656E-013 -3.410605131648481E-013  245333.333333333  99433.3333333334  3  99999.9999999990
   1240.00000000000  23.2207468032073  4.654054919228656E-013 -3.410605131648481E-013  245333.333333333  99433.3333333334  3  99999.9999999990
   1250.00000000000  23.2090582960759  4.654054919228656E-013 -3.410605131648481E-013  245333.333333333  99433.3333333334  3  99999.9999999990
   1260.00000000000  23.1973783859607  4.654054919228656E-013 -3.410605131648481E-013  245333.333333333  99433.3333333334  3  99999.9999999990
   1270.00000000000  23.1857078744070  4.654054919228656E-013 -3.410605131648481E-013  245333.333333333  99433.3333333334  3  99999.9999999990
   1280.00000000000  23.1740475386934  4.654054919228656E-013 -3.410605131648481E-013  245333.333333333  99433.3333333334  3  99999.9999999990
   1290.00000000000  23.1623981324278  4.654054919228656E-013 -3.410605131648481E-013  245333.333333333  99433.3333333334  3  99999.9999999990
   1300.00000000000  23.1507603861309  4.654054919228656E-013 -3.410605131648481E-013  245333.333333333  99433.3333333334  3  99999.9999999990
   1310.00000000000  23.1391350078068  4.654054919228656E-013 -3.410605131648481E-013  245333.333333333  99433.3333333334  3  99999.9999999990
   1320.00000000000  23.1275226835018  4.654054919228656E-013 -3.410605131648481E-013  245333.333333333  99433.3333333334  3  99999.9999999990
   1330.00000000000  23.1159240778511  4.654054919228656E-013 -3.410605131648481E-013  245333.333333333  99433.3333333334  3  99999.9999999990
   1340.00000000000  23.1043398346130  4.654054919228656E-013 -3.410605131648481E-013  245333.333333333  99433.3333333334  3  99999.9999999990
   1350.00000000000  23.0927705771921  4.654054919228656E-013 -3.410605131648481E-013  245333.333333333  99433.3333333334  3  99999.9999999990
   1360.00000000000  23.0812169091502  4.654054919228656E-013 -3.410605131648481E-013  245333.333333333  99433.3333333334  3  99999.9999999990
   1370.00000000000  23.0696794147057  4.654054919228656E-013 -3.410605131648481E-013  245333.333333333  99433.3333333334  3  99999.9999999990
   1380.00000000000  23.0581586592226  4.654054919228656E-013 -3.410605131648481E-013  245333.333333333  99433.3333333334  3  99999.9999999990
