variables = "time","head","temp",                            "conc","vx","vz","sig_kk","kx"
zone
  1.00000000E+01   -2.63389666E-09    4.74447119E+01    9.00000000E-03    0.00000000E+00    0.00000000E+00   -3.35349070E+00    2.07030000E+00
  2.00000000E+01   -3.62342689E-09    4.74447119E+01    9.00000000E-03   -2.10682166E-13    1.60427227E-13   -1.75519946E+01    2.07030000E+00
  3.00000000E+01   -4.04543243E-09    4.74447119E+01    9.00000000E-03   -2.74866935E-13    5.24580379E-14   -1.75519946E+01    2.07030000E+00
  4.00000000E+01   -4.24915925E-09    4.74447119E+01    9.00000000E-03   -3.10255294E-13   -4.74620343E-14   -1.75519946E+01    2.07030000E+00
  5.00000000E+01   -4.38012648E-09    4.74447119E+01    9.00000000E-03   -3.22363664E-13   -9.35362898E-14   -1.75519946E+01    2.07030000E+00
  6.00000000E+01   -4.48198989E-09    4.74447119E+01    9.00000000E-03   -3.43215040E-13   -1.36002321E-13   -1.75519946E+01    2.07030000E+00
  7.00000000E+01   -4.58385330E-09    4.74447119E+01    9.00000000E-03   -3.57144869E-13   -1.76525461E-13   -1.75519946E+01    2.07030000E+00
  8.00000000E+01   -4.70026862E-09    4.74447119E+01    9.00000000E-03   -3.72583908E-13   -2.34534614E-13   -1.75519946E+01    2.07030000E+00
  9.00000000E+01   -4.78758011E-09    4.74447119E+01    9.00000000E-03   -3.95933286E-13   -2.64233080E-13   -1.75519946E+01    2.07030000E+00
  1.00000000E+02   -4.91854735E-09    4.74447119E+01    9.00000000E-03   -4.11216200E-13   -2.75890422E-13   -1.75519946E+01    2.07030000E+00
  1.10000000E+02   -4.99130692E-09    4.74447119E+01    9.00000000E-03   -4.38486053E-13   -3.31401573E-13   -1.75519946E+01    2.07030000E+00
  1.20000000E+02   -5.04951458E-09    4.74447119E+01    9.00000000E-03   -4.55278176E-13   -3.41116024E-13   -3.53557073E+01    2.07030000E+00
  1.30000000E+02   -5.13682608E-09    4.74447119E+01    9.00000000E-03   -4.67265115E-13   -3.85247390E-13   -3.53557073E+01    2.07030000E+00
  1.40000000E+02   -5.22413757E-09    4.74447119E+01    9.00000000E-03   -4.77552026E-13   -4.02733402E-13   -3.53557073E+01    2.07030000E+00
  1.50000000E+02   -5.31144906E-09    4.74447119E+01    9.00000000E-03   -4.93632912E-13   -4.28268532E-13   -3.53557073E+01    2.07030000E+00
  1.60000000E+02   -5.38420863E-09    4.74447119E+01    9.00000000E-03   -5.03156544E-13   -4.53803661E-13   -3.53557073E+01    2.07030000E+00
  1.70000000E+02   -5.44241630E-09    4.74447119E+01    9.00000000E-03   -5.13616927E-13   -4.86832796E-13   -3.53557073E+01    2.07030000E+00
  1.80000000E+02   -5.51517587E-09    4.74447119E+01    9.00000000E-03   -5.28518201E-13   -4.93216579E-13   -3.53557073E+01    2.07030000E+00
  1.90000000E+02   -5.58793545E-09    4.74447119E+01    9.00000000E-03   -5.41944961E-13   -5.05984143E-13   -3.53557073E+01    2.07030000E+00
  2.00000000E+02   -5.64614311E-09    4.74447119E+01    9.00000000E-03   -5.58459529E-13   -5.45952172E-13   -3.53557073E+01    2.07030000E+00
  2.10000000E+02   -5.68979885E-09    4.74447119E+01    9.00000000E-03   -5.70238301E-13   -5.68711744E-13   -3.53557073E+01    2.07030000E+00
  2.20000000E+02   -5.76255843E-09    4.74447119E+01    9.00000000E-03   -5.77610876E-13   -6.17839113E-13   -5.97836804E+01    2.07030000E+00
  2.30000000E+02   -5.79166226E-09    4.74447119E+01    9.00000000E-03   -5.89545773E-13   -6.10622664E-13   -5.97836804E+01    2.07030000E+00
  2.40000000E+02   -5.84986992E-09    4.74447119E+01    9.00000000E-03   -6.00058198E-13   -6.15341111E-13   -5.97836804E+01    2.07030000E+00
  2.50000000E+02   -5.90807758E-09    4.74447119E+01    9.00000000E-03   -6.10709400E-13   -6.26165786E-13   -5.97836804E+01    2.07030000E+00
  2.60000000E+02   -5.98083716E-09    4.74447119E+01    9.00000000E-03   -6.20024865E-13   -6.81399381E-13   -5.97836804E+01    2.07030000E+00
  2.70000000E+02   -6.03904482E-09    4.74447119E+01    9.00000000E-03   -6.30294428E-13   -6.91113833E-13   -5.97836804E+01    2.07030000E+00
  2.80000000E+02   -6.11180440E-09    4.74447119E+01    9.00000000E-03   -6.42159936E-13   -6.94999613E-13   -5.97836804E+01    2.07030000E+00
  2.90000000E+02   -6.14090823E-09    4.74447119E+01    9.00000000E-03   -6.50608040E-13   -7.40518757E-13   -5.97836804E+01    2.07030000E+00
  3.00000000E+02   -6.18456397E-09    4.74447119E+01    9.00000000E-03   -6.56748961E-13   -7.50510765E-13   -5.97836804E+01    2.07030000E+00
  3.10000000E+02   -6.24277163E-09    4.74447119E+01    9.00000000E-03   -6.65422578E-13   -7.42184092E-13   -5.97836804E+01    2.07030000E+00
  3.20000000E+02   -6.28642738E-09    4.74447119E+01    9.00000000E-03   -6.79855477E-13   -7.77156117E-13   -9.35098697E+01    2.07030000E+00
  3.30000000E+02   -6.34463504E-09    4.74447119E+01    9.00000000E-03   -6.87002538E-13   -7.86037901E-13   -9.35098697E+01    2.07030000E+00
  3.40000000E+02   -6.37373887E-09    4.74447119E+01    9.00000000E-03   -6.98677227E-13   -7.94642130E-13   -9.35098697E+01    2.07030000E+00
  3.50000000E+02   -6.40284270E-09    4.74447119E+01    9.00000000E-03   -7.03551800E-13   -8.38495939E-13   -9.35098697E+01    2.07030000E+00
  3.60000000E+02   -6.46105036E-09    4.74447119E+01    9.00000000E-03   -7.08374331E-13   -8.39606162E-13   -9.35098697E+01    2.07030000E+00
  3.70000000E+02   -6.49015419E-09    4.74447119E+01    9.00000000E-03   -7.19164311E-13   -8.55704396E-13   -9.35098697E+01    2.07030000E+00
  3.80000000E+02   -6.50470611E-09    4.74447119E+01    9.00000000E-03   -7.26103205E-13   -8.64308625E-13   -9.35098697E+01    2.07030000E+00
  3.90000000E+02   -6.53380994E-09    4.74447119E+01    9.00000000E-03   -7.28601207E-13   -8.44602166E-13   -9.35098697E+01    2.07030000E+00
  4.00000000E+02   -6.56291377E-09    4.74447119E+01    9.00000000E-03   -7.36320727E-13   -8.78463968E-13   -9.35098697E+01    2.07030000E+00
  4.10000000E+02   -6.60656951E-09    4.74447119E+01    9.00000000E-03   -7.37378908E-13   -9.12603326E-13   -9.35098697E+01    2.07030000E+00
  4.20000000E+02   -6.63567334E-09    4.74447119E+01    9.00000000E-03   -7.45670886E-13   -9.26758670E-13   -1.25944387E+02    2.07030000E+00
  4.30000000E+02   -6.66477717E-09    4.74447119E+01    9.00000000E-03   -7.49383194E-13   -9.08439990E-13   -1.25944387E+02    2.07030000E+00
  4.40000000E+02   -6.72298484E-09    4.74447119E+01    9.00000000E-03   -7.47388262E-13   -9.49518242E-13   -1.25944387E+02    2.07030000E+00
  4.50000000E+02   -6.75208867E-09    4.74447119E+01    9.00000000E-03   -7.57675173E-13   -9.73388037E-13   -1.25944387E+02    2.07030000E+00
  4.60000000E+02   -6.79574441E-09    4.74447119E+01    9.00000000E-03   -7.62861996E-13   -9.79771819E-13   -1.25944387E+02    2.07030000E+00
  4.70000000E+02   -6.82484824E-09    4.74447119E+01    9.00000000E-03   -7.72437669E-13   -9.86433157E-13   -1.25944387E+02    2.07030000E+00
  4.80000000E+02   -6.85395207E-09    4.74447119E+01    9.00000000E-03   -7.78804105E-13   -9.92539384E-13   -1.25944387E+02    2.07030000E+00
  4.90000000E+02   -6.88305590E-09    4.74447119E+01    9.00000000E-03   -7.85690957E-13   -1.00697228E-12   -1.25944387E+02    2.07030000E+00
  5.00000000E+02   -6.91215973E-09    4.74447119E+01    9.00000000E-03   -7.88050181E-13   -1.01252340E-12   -1.25944387E+02    2.07030000E+00
  5.10000000E+02   -6.95581548E-09    4.74447119E+01    9.00000000E-03   -7.94728866E-13   -1.00947029E-12   -1.25944387E+02    2.07030000E+00
  5.20000000E+02   -6.97036739E-09    4.74447119E+01    9.00000000E-03   -7.99707522E-13   -1.02418074E-12   -1.57348579E+02    2.07030000E+00
  5.30000000E+02   -6.98491931E-09    4.74447119E+01    9.00000000E-03   -8.02743289E-13   -1.03694830E-12   -1.57348579E+02    2.07030000E+00
  5.40000000E+02   -7.02857506E-09    4.74447119E+01    9.00000000E-03   -8.05883138E-13   -1.03389519E-12   -1.57348579E+02    2.07030000E+00
  5.50000000E+02   -7.04312697E-09    4.74447119E+01    9.00000000E-03   -8.11243434E-13   -1.07580611E-12   -1.57348579E+02    2.07030000E+00
  5.60000000E+02   -7.08678272E-09    4.74447119E+01    9.00000000E-03   -8.15354728E-13   -1.08774101E-12   -1.57348579E+02    2.07030000E+00
  5.70000000E+02   -7.13043846E-09    4.74447119E+01    9.00000000E-03   -8.24271207E-13   -1.07441833E-12   -1.57348579E+02    2.07030000E+00
  5.80000000E+02   -7.14499038E-09    4.74447119E+01    9.00000000E-03   -8.32094810E-13   -1.09690035E-12   -1.57348579E+02    2.07030000E+00
  5.90000000E+02   -7.14499038E-09    4.74447119E+01    9.00000000E-03   -8.34991798E-13   -1.09273701E-12   -1.57348579E+02    2.07030000E+00
  6.00000000E+02   -7.15954229E-09    4.74447119E+01    9.00000000E-03   -8.36344882E-13   -1.09828813E-12   -1.57348579E+02    2.07030000E+00
  6.10000000E+02   -7.18864612E-09    4.74447119E+01    9.00000000E-03   -8.39831676E-13   -1.10161880E-12   -1.57348579E+02    2.07030000E+00
  6.20000000E+02   -7.20319804E-09    4.74447119E+01    9.00000000E-03   -8.45920556E-13   -1.11438636E-12   -2.00313424E+02    2.07030000E+00
  6.30000000E+02   -7.21774995E-09    4.74447119E+01    9.00000000E-03   -8.49268572E-13   -1.11965992E-12   -2.00313424E+02    2.07030000E+00
  6.40000000E+02   -7.24685378E-09    4.74447119E+01    9.00000000E-03   -8.52512505E-13   -1.14935839E-12   -2.00313424E+02    2.07030000E+00
  6.50000000E+02   -7.27595761E-09    4.74447119E+01    9.00000000E-03   -8.54524784E-13   -1.15296661E-12   -2.00313424E+02    2.07030000E+00
  6.60000000E+02   -7.30506144E-09    4.74447119E+01    9.00000000E-03   -8.60509580E-13   -1.16573418E-12   -2.00313424E+02    2.07030000E+00
  6.70000000E+02   -7.33416528E-09    4.74447119E+01    9.00000000E-03   -8.64100458E-13   -1.13326015E-12   -2.00313424E+02    2.07030000E+00
  6.80000000E+02   -7.36326911E-09    4.74447119E+01    9.00000000E-03   -8.62140220E-13   -1.17961196E-12   -2.00313424E+02    2.07030000E+00
  6.90000000E+02   -7.39237294E-09    4.74447118E+01    9.00000000E-03   -8.68038280E-13   -1.19154686E-12   -2.00313424E+02    2.07030000E+00
  7.00000000E+02   -7.39237294E-09    4.74447118E+01    9.00000000E-03   -8.70050559E-13   -1.15990550E-12   -2.00313424E+02    2.07030000E+00
  7.10000000E+02   -7.39237294E-09    4.74447118E+01    9.00000000E-03   -8.67014793E-13   -1.16157084E-12   -2.00313424E+02    2.07030000E+00
  7.20000000E+02   -7.40692485E-09    4.74447118E+01    9.00000000E-03   -8.62383082E-13   -1.16434640E-12   -2.39531932E+02    2.07030000E+00
  7.30000000E+02   -7.45058060E-09    4.74447118E+01    9.00000000E-03   -8.61533067E-13   -1.16656684E-12   -2.39531932E+02    2.07030000E+00
  7.40000000E+02   -7.46513251E-09    4.74447118E+01    9.00000000E-03   -8.70449546E-13   -1.17850174E-12   -2.39531932E+02    2.07030000E+00
  7.50000000E+02   -7.47968443E-09    4.74447118E+01    9.00000000E-03   -8.73797562E-13   -1.17156285E-12   -2.39531932E+02    2.07030000E+00
  7.60000000E+02   -7.49423634E-09    4.74447118E+01    9.00000000E-03   -8.75619022E-13   -1.17406085E-12   -2.39531932E+02    2.07030000E+00
  7.70000000E+02   -7.49423634E-09    4.74447118E+01    9.00000000E-03   -8.77874162E-13   -1.18544063E-12   -2.39531932E+02    2.07030000E+00
  7.80000000E+02   -7.50878826E-09    4.74447117E+01    9.00000000E-03   -8.75081257E-13   -1.17766907E-12   -2.39531932E+02    2.07030000E+00
  7.90000000E+02   -7.52334017E-09    4.74447117E+01    9.00000000E-03   -8.78984385E-13   -1.17988952E-12   -2.39531932E+02    2.07030000E+00
  8.00000000E+02   -7.52334017E-09    4.74447117E+01    9.00000000E-03   -8.82315054E-13   -1.19154686E-12   -2.39531932E+02    2.07030000E+00
  8.10000000E+02   -7.55244400E-09    4.74447117E+01    9.00000000E-03   -8.83008944E-13   -1.19321220E-12   -2.39531932E+02    2.07030000E+00
  8.20000000E+02   -7.56699592E-09    4.74447117E+01    9.00000000E-03   -8.86218182E-13   -1.18599575E-12   -2.70602396E+02    2.07030000E+00
  8.30000000E+02   -7.56699592E-09    4.74447116E+01    9.00000000E-03   -8.90034574E-13   -1.18849375E-12   -2.70602396E+02    2.07030000E+00
  8.40000000E+02   -7.56699592E-09    4.74447116E+01    9.00000000E-03   -8.90537644E-13   -1.18932642E-12   -2.70602396E+02    2.07030000E+00
  8.50000000E+02   -7.59609975E-09    4.74447115E+01    9.00000000E-03   -8.91075408E-13   -1.19182442E-12   -2.70602396E+02    2.07030000E+00
  8.60000000E+02   -7.59609975E-09    4.74447115E+01    9.00000000E-03   -8.96522440E-13   -1.20292665E-12   -2.70602396E+02    2.07030000E+00
  8.70000000E+02   -7.61065166E-09    4.74447115E+01    9.00000000E-03   -8.96956120E-13   -1.20431443E-12   -2.70602396E+02    2.07030000E+00
  8.80000000E+02   -7.61065166E-09    4.74447114E+01    9.00000000E-03   -8.99644942E-13   -1.20653487E-12   -2.70602396E+02    2.07030000E+00
  8.90000000E+02   -7.61065166E-09    4.74447114E+01    9.00000000E-03   -9.00148012E-13   -1.20736754E-12   -2.70602396E+02    2.07030000E+00
  9.00000000E+02   -7.61065166E-09    4.74447113E+01    9.00000000E-03   -9.00581693E-13   -1.20986554E-12   -2.70602396E+02    2.07030000E+00
  9.10000000E+02   -7.61065166E-09    4.74447112E+01    9.00000000E-03   -9.01067415E-13   -1.21097576E-12   -2.70602396E+02    2.07030000E+00
  9.20000000E+02   -7.61065166E-09    4.74447112E+01    9.00000000E-03   -9.01622527E-13   -1.21319621E-12   -3.18434186E+02    2.07030000E+00
  9.30000000E+02   -7.61065166E-09    4.74447111E+01    9.00000000E-03   -9.02073555E-13   -1.21541666E-12   -3.18434186E+02    2.07030000E+00
  9.40000000E+02   -7.61065166E-09    4.74447110E+01    9.00000000E-03   -9.02628666E-13   -1.21763710E-12   -3.18434186E+02    2.07030000E+00
  9.50000000E+02   -7.63975549E-09    4.74447109E+01    9.00000000E-03   -9.03079694E-13   -1.21819221E-12   -3.18434186E+02    2.07030000E+00
  9.60000000E+02   -7.65430741E-09    4.74447108E+01    9.00000000E-03   -9.07295072E-13   -1.22929444E-12   -3.18434186E+02    2.07030000E+00
  9.70000000E+02   -7.66885933E-09    4.74447107E+01    9.00000000E-03   -9.10539005E-13   -1.22069022E-12   -3.18434186E+02    2.07030000E+00
  9.80000000E+02   -7.66885933E-09    4.74447105E+01    9.00000000E-03   -9.10313491E-13   -1.25788269E-12   -3.18434186E+02    2.07030000E+00
  9.90000000E+02   -7.66885933E-09    4.74447104E+01    9.00000000E-03   -9.10747172E-13   -1.25871535E-12   -3.18434186E+02    2.07030000E+00
  1.00000000E+03   -7.66885933E-09    4.74447103E+01    9.00000000E-03   -9.11111464E-13   -1.26121336E-12   -3.18434186E+02    2.07030000E+00
  1.01000000E+03   -7.66885933E-09    4.74447101E+01    9.00000000E-03   -9.11527798E-13   -1.26176847E-12   -3.18434186E+02    2.07030000E+00
  1.02000000E+03   -7.68341124E-09    4.74447099E+01    9.00000000E-03   -9.11944131E-13   -1.26398891E-12   -3.60489920E+02    2.07030000E+00
  1.03000000E+03   -7.69796316E-09    4.74447098E+01    9.00000000E-03   -9.14494175E-13   -1.28286270E-12   -3.60489920E+02    2.07030000E+00
  1.04000000E+03   -7.71251507E-09    4.74447096E+01    9.00000000E-03   -9.18241178E-13   -1.28452804E-12   -3.60489920E+02    2.07030000E+00
  1.05000000E+03   -7.71251507E-09    4.74447093E+01    9.00000000E-03   -9.18744247E-13   -1.28647093E-12   -3.60489920E+02    2.07030000E+00
  1.06000000E+03   -7.72706699E-09    4.74447091E+01    9.00000000E-03   -9.19021803E-13   -1.28702604E-12   -3.60489920E+02    2.07030000E+00
  1.07000000E+03   -7.75617082E-09    4.74447089E+01    9.00000000E-03   -9.22144305E-13   -1.27953204E-12   -3.60489920E+02    2.07030000E+00
  1.08000000E+03   -7.75617082E-09    4.74447086E+01    9.00000000E-03   -9.28424004E-13   -1.28952404E-12   -3.60489920E+02    2.07030000E+00
  1.09000000E+03   -7.75617082E-09    4.74447083E+01    9.00000000E-03   -9.28718907E-13   -1.29035671E-12   -3.60489920E+02    2.07030000E+00
  1.10000000E+03   -7.75617082E-09    4.74447080E+01    9.00000000E-03   -9.29152588E-13   -1.30978561E-12   -3.60489920E+02    2.07030000E+00
  1.11000000E+03   -7.75617082E-09    4.74447076E+01    9.00000000E-03   -9.29447491E-13   -1.31117339E-12   -3.60489920E+02    2.07030000E+00
  1.12000000E+03   -7.75617082E-09    4.74447073E+01    9.00000000E-03   -9.29811783E-13   -1.31200606E-12   -3.86862563E+02    2.07030000E+00
  1.13000000E+03   -7.75617082E-09    4.74447069E+01    9.00000000E-03   -9.30193422E-13   -1.31478162E-12   -3.86862563E+02    2.07030000E+00
  1.14000000E+03   -7.78527465E-09    4.74447065E+01    9.00000000E-03   -9.30505673E-13   -1.31478162E-12   -3.86862563E+02    2.07030000E+00
  1.15000000E+03   -7.79982656E-09    4.74447061E+01    9.00000000E-03   -9.31286298E-13   -1.31589184E-12   -3.86862563E+02    2.07030000E+00
  1.16000000E+03   -7.79982656E-09    4.74447056E+01    9.00000000E-03   -9.30956701E-13   -1.28064226E-12   -3.86862563E+02    2.07030000E+00
  1.17000000E+03   -7.79982656E-09    4.74447051E+01    9.00000000E-03   -9.31338340E-13   -1.28230759E-12   -3.86862563E+02    2.07030000E+00
  1.18000000E+03   -7.79982656E-09    4.74447046E+01    9.00000000E-03   -9.27782157E-13   -1.32810429E-12   -3.86862563E+02    2.07030000E+00
  1.19000000E+03   -7.79982656E-09    4.74447040E+01    9.00000000E-03   -9.27990323E-13   -1.32865940E-12   -3.86862563E+02    2.07030000E+00
  1.20000000E+03   -7.82893039E-09    4.74447034E+01    9.00000000E-03   -9.25960697E-13   -1.31283873E-12   -3.86862563E+02    2.07030000E+00
  1.21000000E+03   -7.85803422E-09    4.74447027E+01    9.00000000E-03   -9.24902516E-13   -1.29452005E-12   -3.86862563E+02    2.07030000E+00
  1.22000000E+03   -7.85803422E-09    4.74447021E+01    9.00000000E-03   -9.29482186E-13   -1.29535271E-12   -4.37729550E+02    2.07030000E+00
  1.23000000E+03   -7.85803422E-09    4.74447013E+01    9.00000000E-03   -9.29725047E-13   -1.29535271E-12   -4.37729550E+02    2.07030000E+00
  1.24000000E+03   -7.85803422E-09    4.74447005E+01    9.00000000E-03   -9.30054644E-13   -1.29729560E-12   -4.37729550E+02    2.07030000E+00
  1.25000000E+03   -7.85803422E-09    4.74446997E+01    9.00000000E-03   -9.30262811E-13   -1.29785072E-12   -4.37729550E+02    2.07030000E+00
  1.26000000E+03   -7.85803422E-09    4.74446989E+01    9.00000000E-03   -9.30418936E-13   -1.29868338E-12   -4.37729550E+02    2.07030000E+00
  1.27000000E+03   -7.85803422E-09    4.74446979E+01    9.00000000E-03   -9.28198490E-13   -1.31616940E-12   -4.37729550E+02    2.07030000E+00
  1.28000000E+03   -7.85803422E-09    4.74446970E+01    9.00000000E-03   -9.28302574E-13   -1.31727962E-12   -4.37729550E+02    2.07030000E+00
  1.29000000E+03   -7.87258614E-09    4.74446959E+01    9.00000000E-03   -9.28441352E-13   -1.31783473E-12   -4.37729550E+02    2.07030000E+00
  1.30000000E+03   -7.87258614E-09    4.74446948E+01    9.00000000E-03   -9.30887312E-13   -1.31894495E-12   -4.37729550E+02    2.07030000E+00
  1.31000000E+03   -7.88713805E-09    4.74446937E+01    9.00000000E-03   -9.31112826E-13   -1.31977762E-12   -4.37729550E+02    2.07030000E+00
  1.32000000E+03   -7.88713805E-09    4.74446925E+01    9.00000000E-03   -9.32882244E-13   -1.32976963E-12   -4.80026569E+02    2.07030000E+00
  1.33000000E+03   -7.88713805E-09    4.74446912E+01    9.00000000E-03   -9.33125105E-13   -1.33032474E-12   -4.80026569E+02    2.07030000E+00
  1.34000000E+03   -7.88713805E-09    4.74446898E+01    9.00000000E-03   -9.33315925E-13   -1.33171252E-12   -4.80026569E+02    2.07030000E+00
  1.35000000E+03   -7.90168997E-09    4.74446884E+01    9.00000000E-03   -9.33437355E-13   -1.33143496E-12   -4.80026569E+02    2.07030000E+00
  1.36000000E+03   -7.90168997E-09    4.74446869E+01    9.00000000E-03   -9.35865968E-13   -1.33254519E-12   -4.80026569E+02    2.07030000E+00
  1.37000000E+03   -7.90168997E-09    4.74446853E+01    9.00000000E-03   -9.36074135E-13   -1.33310030E-12   -4.80026569E+02    2.07030000E+00
  1.38000000E+03   -7.90168997E-09    4.74446837E+01    9.00000000E-03   -9.36160871E-13   -1.33282274E-12   -4.80026569E+02    2.07030000E+00
  1.39000000E+03   -7.90168997E-09    4.74446819E+01    9.00000000E-03   -9.36230260E-13   -1.33226763E-12   -4.80026569E+02    2.07030000E+00
