title = "elemental data"
variables = "time (yr)", "temp (deg. c)","qx(m/yr)","qz(m/yr)","x(m)","z(m)","mat","head(m)"
text  x=50.0,y=50.0,t="element # 12831 "
zone f="point",i=  3000
   10.0000000000000  24.1457796897013 -2.775557561562891E-016 -1.332267629550188E-015  245333.333333333  99433.3333333334  3  99999.9999999999
   20.0000000000000  24.1457778755642 -4.440892098500626E-016 -1.776356839400250E-015  245333.333333333  99433.3333333334  3  99999.9999999999
   30.0000000000000  24.1457724515278 -5.828670879282072E-016 -8.881784197001252E-016  245333.333333333  99433.3333333334  3  99999.9999999998
   40.0000000000000  24.1457599980245 -7.771561172376096E-016 -1.776356839400250E-015  245333.333333333  99433.3333333334  3  99999.9999999998
   50.0000000000000  24.1457357299370 -9.436895709313831E-016 -2.220446049250313E-015  245333.333333333  99433.3333333334  3  99999.9999999997
   60.0000000000000  24.1456934966155 -1.082467449009528E-015 -2.664535259100376E-015  245333.333333333  99433.3333333334  3  99999.9999999997
   70.0000000000000  24.1456258627956 -1.249000902703301E-015 -2.664535259100376E-015  245333.333333333  99433.3333333334  3  99999.9999999996
   80.0000000000000  24.1455242493709 -1.387778780781446E-015 -3.108624468950438E-015  245333.333333333  99433.3333333334  3  99999.9999999996
   90.0000000000000  24.1453791138977 -1.471045507628332E-015 -2.664535259100376E-015  245333.333333333  99433.3333333334  3  99999.9999999995
   100.000000000000  24.1451801532456 -1.526556658859590E-015 -3.108624468950438E-015  245333.333333333  99433.3333333334  3  99999.9999999995
   110.000000000000  24.1449165139976 -1.693090112553364E-015 -3.552713678800501E-015  245333.333333333  99433.3333333334  3  99999.9999999995
   120.000000000000  24.1445769994697 -1.804112415015879E-015 -4.440892098500626E-015  245333.333333333  99433.3333333334  3  99999.9999999994
   130.000000000000  24.1441502652389 -1.915134717478395E-015 -4.884981308350689E-015  245333.333333333  99433.3333333334  3  99999.9999999994
   140.000000000000  24.1436249976843 -1.970645868709653E-015 -3.996802888650564E-015  245333.333333333  99433.3333333334  3  99999.9999999994
   150.000000000000  24.1429900722139 -2.053912595556540E-015 -3.996802888650564E-015  245333.333333333  99433.3333333334  3  99999.9999999993
   160.000000000000  24.1422346895574 -2.164934898019055E-015 -3.996802888650564E-015  245333.333333333  99433.3333333334  3  99999.9999999993
   170.000000000000  24.1413484898162 -2.275957200481571E-015 -5.329070518200751E-015  245333.333333333  99433.3333333334  3  99999.9999999993
   180.000000000000  24.1403216449057 -2.331468351712829E-015 -4.884981308350689E-015  245333.333333333  99433.3333333334  3  99999.9999999992
   190.000000000000  24.1391449306861 -2.414735078559715E-015 -5.329070518200751E-015  245333.333333333  99433.3333333334  3  99999.9999999992
   200.000000000000  24.1378097804919 -2.498001805406602E-015 -6.217248937900877E-015  245333.333333333  99433.3333333334  3  99999.9999999992
   210.000000000000  24.1363083220035 -2.581268532253489E-015 -6.661338147750939E-015  245333.333333333  99433.3333333334  3  99999.9999999992
   220.000000000000  24.1346333994982 -2.692290834716005E-015 -6.661338147750939E-015  245333.333333333  99433.3333333334  3  99999.9999999991
   230.000000000000  24.1327785835056 -2.720046410331634E-015 -6.217248937900877E-015  245333.333333333  99433.3333333334  3  99999.9999999991
   240.000000000000  24.1307381698106 -2.831068712794149E-015 -6.661338147750939E-015  245333.333333333  99433.3333333334  3  99999.9999999991
   250.000000000000  24.1285071696204 -2.886579864025407E-015 -6.661338147750939E-015  245333.333333333  99433.3333333334  3  99999.9999999990
   260.000000000000  24.1260812925512 -2.997602166487923E-015 -7.105427357601002E-015  245333.333333333  99433.3333333334  3  99999.9999999990
   270.000000000000  24.1234569239209 -3.053113317719180E-015 -7.549516567451064E-015  245333.333333333  99433.3333333334  3  99999.9999999990
   280.000000000000  24.1206310976591 -3.080868893334809E-015 -6.661338147750939E-015  245333.333333333  99433.3333333334  3  99999.9999999990
   290.000000000000  24.1176014659737 -3.136380044566067E-015 -7.549516567451064E-015  245333.333333333  99433.3333333334  3  99999.9999999990
   300.000000000000  24.1143662667519 -3.191891195797325E-015 -7.993605777301127E-015  245333.333333333  99433.3333333334  3  99999.9999999990
   310.000000000000  24.1109242895222 -3.275157922644212E-015 -7.993605777301127E-015  245333.333333333  99433.3333333334  3  99999.9999999989
   320.000000000000  24.1072748406695 -3.247402347028583E-015 -8.437694987151190E-015  245333.333333333  99433.3333333334  3  99999.9999999989
   330.000000000000  24.1034177084702 -3.330669073875470E-015 -8.437694987151190E-015  245333.333333333  99433.3333333334  3  99999.9999999988
   340.000000000000  24.0993531284088 -3.302913498259841E-015 -8.881784197001252E-015  245333.333333333  99433.3333333334  3  99999.9999999988
   350.000000000000  24.0950817491440 -3.330669073875470E-015 -8.437694987151190E-015  245333.333333333  99433.3333333334  3  99999.9999999988
   360.000000000000  24.0906045994073 -3.386180225106727E-015 -8.437694987151190E-015  245333.333333333  99433.3333333334  3  99999.9999999988
   370.000000000000  24.0859230560546 -3.497202527569243E-015 -8.881784197001252E-015  245333.333333333  99433.3333333334  3  99999.9999999987
   380.000000000000  24.0810388134264 -3.552713678800501E-015 -9.325873406851315E-015  245333.333333333  99433.3333333334  3  99999.9999999987
   390.000000000000  24.0759538541279 -3.608224830031759E-015 -8.881784197001252E-015  245333.333333333  99433.3333333334  3  99999.9999999987
   400.000000000000  24.0706704212986 -3.663735981263017E-015 -9.325873406851315E-015  245333.333333333  99433.3333333334  3  99999.9999999987
   410.000000000000  24.0651909924076 -3.719247132494274E-015 -9.325873406851315E-015  245333.333333333  99433.3333333334  3  99999.9999999987
   420.000000000000  24.0595182545852 -3.774758283725532E-015 -9.769962616701378E-015  245333.333333333  99433.3333333334  3  99999.9999999987
   430.000000000000  24.0536550814802 -3.830269434956790E-015 -1.021405182655144E-014  245333.333333333  99433.3333333334  3  99999.9999999986
   440.000000000000  24.0476045116141 -3.858025010572419E-015 -9.769962616701378E-015  245333.333333333  99433.3333333334  3  99999.9999999986
   450.000000000000  24.0413697281935 -3.969047313034935E-015 -1.065814103640150E-014  245333.333333333  99433.3333333334  3  99999.9999999986
   460.000000000000  24.0349540403308 -3.969047313034935E-015 -1.021405182655144E-014  245333.333333333  99433.3333333334  3  99999.9999999986
   470.000000000000  24.0283608656159 -3.996802888650564E-015 -1.065814103640150E-014  245333.333333333  99433.3333333334  3  99999.9999999986
   480.000000000000  24.0215937139795 -4.107825191113079E-015 -1.065814103640150E-014  245333.333333333  99433.3333333334  3  99999.9999999986
   490.000000000000  24.0146561727829 -4.191091917959966E-015 -1.110223024625157E-014  245333.333333333  99433.3333333334  3  99999.9999999985
   500.000000000000  24.0075518930699 -4.191091917959966E-015 -1.110223024625157E-014  245333.333333333  99433.3333333334  3  99999.9999999985
   510.000000000000  24.0002845769158 -4.191091917959966E-015 -1.110223024625157E-014  245333.333333333  99433.3333333334  3  99999.9999999985
   520.000000000000  23.9928579658074 -4.218847493575595E-015 -1.065814103640150E-014  245333.333333333  99433.3333333334  3  99999.9999999985
   530.000000000000  23.9852758299927 -4.302114220422482E-015 -1.110223024625157E-014  245333.333333333  99433.3333333334  3  99999.9999999985
   540.000000000000  23.9775419587362 -4.329869796038111E-015 -1.154631945610163E-014  245333.333333333  99433.3333333334  3  99999.9999999985
   550.000000000000  23.9696601514232 -4.440892098500626E-015 -1.154631945610163E-014  245333.333333333  99433.3333333334  3  99999.9999999985
   560.000000000000  23.9616342094535 -4.468647674116255E-015 -1.154631945610163E-014  245333.333333333  99433.3333333334  3  99999.9999999984
   570.000000000000  23.9534679288724 -4.496403249731884E-015 -1.065814103640150E-014  245333.333333333  99433.3333333334  3  99999.9999999984
   580.000000000000  23.9451650936861 -4.579669976578771E-015 -1.154631945610163E-014  245333.333333333  99433.3333333334  3  99999.9999999984
   590.000000000000  23.9367294698135 -4.607425552194400E-015 -1.199040866595169E-014  245333.333333333  99433.3333333334  3  99999.9999999984
   600.000000000000  23.9281647996276 -4.607425552194400E-015 -1.154631945610163E-014  245333.333333333  99433.3333333334  3  99999.9999999984
   610.000000000000  23.9194747970438 -4.690692279041286E-015 -1.154631945610163E-014  245333.333333333  99433.3333333334  3  99999.9999999983
   620.000000000000  23.9106631431144 -4.718447854656915E-015 -1.154631945610163E-014  245333.333333333  99433.3333333334  3  99999.9999999983
   630.000000000000  23.9017334820905 -4.801714581503802E-015 -1.243449787580175E-014  245333.333333333  99433.3333333334  3  99999.9999999983
   640.000000000000  23.8926894179167 -4.829470157119431E-015 -1.199040866595169E-014  245333.333333333  99433.3333333334  3  99999.9999999983
   650.000000000000  23.8835345111239 -4.857225732735060E-015 -1.243449787580175E-014  245333.333333333  99433.3333333334  3  99999.9999999983
   660.000000000000  23.8742722760907 -4.857225732735060E-015 -1.243449787580175E-014  245333.333333333  99433.3333333334  3  99999.9999999983
   670.000000000000  23.8649061786428 -4.884981308350689E-015 -1.287858708565182E-014  245333.333333333  99433.3333333334  3  99999.9999999983
   680.000000000000  23.8554396339648 -4.884981308350689E-015 -1.287858708565182E-014  245333.333333333  99433.3333333334  3  99999.9999999983
   690.000000000000  23.8458760047983 -4.884981308350689E-015 -1.287858708565182E-014  245333.333333333  99433.3333333334  3  99999.9999999983
   700.000000000000  23.8362185999037 -4.884981308350689E-015 -1.287858708565182E-014  245333.333333333  99433.3333333334  3  99999.9999999983
   710.000000000000  23.8264706727632 -4.912736883966318E-015 -1.332267629550188E-014  245333.333333333  99433.3333333334  3  99999.9999999983
   720.000000000000  23.8166354205061 -4.912736883966318E-015 -1.332267629550188E-014  245333.333333333  99433.3333333334  3  99999.9999999982
   730.000000000000  23.8067159830365 -4.940492459581947E-015 -1.243449787580175E-014  245333.333333333  99433.3333333334  3  99999.9999999982
   740.000000000000  23.7967154423462 -4.912736883966318E-015 -1.287858708565182E-014  245333.333333333  99433.3333333334  3  99999.9999999982
   750.000000000000  23.7866368219986 -4.940492459581947E-015 -1.376676550535194E-014  245333.333333333  99433.3333333334  3  99999.9999999982
   760.000000000000  23.7764830867656 -4.940492459581947E-015 -1.332267629550188E-014  245333.333333333  99433.3333333334  3  99999.9999999982
   770.000000000000  23.7662571424067 -4.940492459581947E-015 -1.332267629550188E-014  245333.333333333  99433.3333333334  3  99999.9999999981
   780.000000000000  23.7559618355758 -4.884981308350689E-015 -1.332267629550188E-014  245333.333333333  99433.3333333334  3  99999.9999999981
   790.000000000000  23.7455999538445 -4.940492459581947E-015 -1.332267629550188E-014  245333.333333333  99433.3333333334  3  99999.9999999981
   800.000000000000  23.7351742258310 -4.996003610813204E-015 -1.376676550535194E-014  245333.333333333  99433.3333333334  3  99999.9999999981
   810.000000000000  23.7246873214247 -4.996003610813204E-015 -1.376676550535194E-014  245333.333333333  99433.3333333334  3  99999.9999999981
   820.000000000000  23.7141418520963 -5.051514762044462E-015 -1.332267629550188E-014  245333.333333333  99433.3333333334  3  99999.9999999980
   830.000000000000  23.7035403712868 -5.107025913275720E-015 -1.421085471520200E-014  245333.333333333  99433.3333333334  3  99999.9999999980
   840.000000000000  23.6928853748643 -5.107025913275720E-015 -1.376676550535194E-014  245333.333333333  99433.3333333334  3  99999.9999999980
   850.000000000000  23.6821793016452 -5.107025913275720E-015 -1.376676550535194E-014  245333.333333333  99433.3333333334  3  99999.9999999980
   860.000000000000  23.6714245339695 -5.134781488891349E-015 -1.421085471520200E-014  245333.333333333  99433.3333333334  3  99999.9999999980
   870.000000000000  23.6606233983262 -5.162537064506978E-015 -1.465494392505207E-014  245333.333333333  99433.3333333334  3  99999.9999999980
   880.000000000000  23.6497781660221 -5.162537064506978E-015 -1.465494392505207E-014  245333.333333333  99433.3333333334  3  99999.9999999980
   890.000000000000  23.6388910538891 -5.162537064506978E-015 -1.465494392505207E-014  245333.333333333  99433.3333333334  3  99999.9999999980
   900.000000000000  23.6279642250250 -5.190292640122607E-015 -1.509903313490213E-014  245333.333333333  99433.3333333334  3  99999.9999999980
   910.000000000000  23.6169997895634 -5.190292640122607E-015 -1.376676550535194E-014  245333.333333333  99433.3333333334  3  99999.9999999980
   920.000000000000  23.6059998054688 -5.190292640122607E-015 -1.376676550535194E-014  245333.333333333  99433.3333333334  3  99999.9999999980
   930.000000000000  23.5949662793523 -5.190292640122607E-015 -1.376676550535194E-014  245333.333333333  99433.3333333334  3  99999.9999999980
   940.000000000000  23.5839011673060 -5.190292640122607E-015 -1.376676550535194E-014  245333.333333333  99433.3333333334  3  99999.9999999980
   950.000000000000  23.5728063757511 -5.190292640122607E-015 -1.376676550535194E-014  245333.333333333  99433.3333333334  3  99999.9999999980
   960.000000000000  23.5616837622982 -5.218048215738236E-015 -1.465494392505207E-014  245333.333333333  99433.3333333334  3  99999.9999999980
   970.000000000000  23.5505351366170 -5.245803791353865E-015 -1.509903313490213E-014  245333.333333333  99433.3333333334  3  99999.9999999980
   980.000000000000  23.5393622613118 -5.273559366969494E-015 -1.598721155460225E-014  245333.333333333  99433.3333333334  3  99999.9999999980
   990.000000000000  23.5281668528024 -5.273559366969494E-015 -1.465494392505207E-014  245333.333333333  99433.3333333334  3  99999.9999999979
   1000.00000000000  23.5169505822067 -5.301314942585122E-015 -1.465494392505207E-014  245333.333333333  99433.3333333334  3  99999.9999999979
   1010.00000000000  23.5057150762246 -5.384581669432009E-015 -1.509903313490213E-014  245333.333333333  99433.3333333334  3  99999.9999999979
   1020.00000000000  23.4944619180205 -5.384581669432009E-015 -1.509903313490213E-014  245333.333333333  99433.3333333334  3  99999.9999999979
   1030.00000000000  23.4831926481031 -5.384581669432009E-015 -1.509903313490213E-014  245333.333333333  99433.3333333334  3  99999.9999999979
   1040.00000000000  23.4719087652019 -5.384581669432009E-015 -1.509903313490213E-014  245333.333333333  99433.3333333334  3  99999.9999999979
   1050.00000000000  23.4606117271384 -5.384581669432009E-015 -1.509903313490213E-014  245333.333333333  99433.3333333334  3  99999.9999999979
   1060.00000000000  23.4493029516906 -5.356826093816380E-015 -1.509903313490213E-014  245333.333333333  99433.3333333334  3  99999.9999999979
   1070.00000000000  23.4379838174515 -5.273559366969494E-015 -1.509903313490213E-014  245333.333333333  99433.3333333334  3  99999.9999999979
   1080.00000000000  23.4266556646781 -5.273559366969494E-015 -1.554312234475219E-014  245333.333333333  99433.3333333334  3  99999.9999999979
   1090.00000000000  23.4153197961325 -5.329070518200751E-015 -1.598721155460225E-014  245333.333333333  99433.3333333334  3  99999.9999999979
   1100.00000000000  23.4039774779138 -5.301314942585122E-015 -1.509903313490213E-014  245333.333333333  99433.3333333334  3  99999.9999999979
   1110.00000000000  23.3926299402786 -5.329070518200751E-015 -1.509903313490213E-014  245333.333333333  99433.3333333334  3  99999.9999999978
   1120.00000000000  23.3812783784517 -5.384581669432009E-015 -1.509903313490213E-014  245333.333333333  99433.3333333334  3  99999.9999999978
   1130.00000000000  23.3699239534261 -5.356826093816380E-015 -1.509903313490213E-014  245333.333333333  99433.3333333334  3  99999.9999999978
   1140.00000000000  23.3585677927501 -5.329070518200751E-015 -1.509903313490213E-014  245333.333333333  99433.3333333334  3  99999.9999999978
   1150.00000000000  23.3472109913034 -5.329070518200751E-015 -1.509903313490213E-014  245333.333333333  99433.3333333334  3  99999.9999999978
   1160.00000000000  23.3358546120612 -5.329070518200751E-015 -1.509903313490213E-014  245333.333333333  99433.3333333334  3  99999.9999999978
   1170.00000000000  23.3244996868453 -5.329070518200751E-015 -1.554312234475219E-014  245333.333333333  99433.3333333334  3  99999.9999999978
   1180.00000000000  23.3131472170626 -5.356826093816380E-015 -1.643130076445232E-014  245333.333333333  99433.3333333334  3  99999.9999999977
   1190.00000000000  23.3017981744311 -5.356826093816380E-015 -1.643130076445232E-014  245333.333333333  99433.3333333334  3  99999.9999999977
   1200.00000000000  23.2904535016931 -5.356826093816380E-015 -1.643130076445232E-014  245333.333333333  99433.3333333334  3  99999.9999999977
   1210.00000000000  23.2791141133148 -5.356826093816380E-015 -1.643130076445232E-014  245333.333333333  99433.3333333334  3  99999.9999999977
   1220.00000000000  23.2677808961734 -5.356826093816380E-015 -1.643130076445232E-014  245333.333333333  99433.3333333334  3  99999.9999999977
   1230.00000000000  23.2564547102308 -5.356826093816380E-015 -1.643130076445232E-014  245333.333333333  99433.3333333334  3  99999.9999999977
   1240.00000000000  23.2451363891946 -5.356826093816380E-015 -1.643130076445232E-014  245333.333333333  99433.3333333334  3  99999.9999999977
   1250.00000000000  23.2338267411656 -5.356826093816380E-015 -1.643130076445232E-014  245333.333333333  99433.3333333334  3  99999.9999999977
   1260.00000000000  23.2225265492725 -5.356826093816380E-015 -1.643130076445232E-014  245333.333333333  99433.3333333334  3  99999.9999999977
   1270.00000000000  23.2112365722936 -5.356826093816380E-015 -1.598721155460225E-014  245333.333333333  99433.3333333334  3  99999.9999999977
   1280.00000000000  23.1999575452660 -5.384581669432009E-015 -1.554312234475219E-014  245333.333333333  99433.3333333334  3  99999.9999999977
   1290.00000000000  23.1886901800813 -5.495603971894525E-015 -1.643130076445232E-014  245333.333333333  99433.3333333334  3  99999.9999999977
   1300.00000000000  23.1774351660695 -5.495603971894525E-015 -1.643130076445232E-014  245333.333333333  99433.3333333334  3  99999.9999999977
   1310.00000000000  23.1661931705693 -5.495603971894525E-015 -1.643130076445232E-014  245333.333333333  99433.3333333334  3  99999.9999999977
   1320.00000000000  23.1549648394876 -5.495603971894525E-015 -1.643130076445232E-014  245333.333333333  99433.3333333334  3  99999.9999999977
   1330.00000000000  23.1437507978447 -5.495603971894525E-015 -1.643130076445232E-014  245333.333333333  99433.3333333334  3  99999.9999999977
   1340.00000000000  23.1325516503096 -5.495603971894525E-015 -1.643130076445232E-014  245333.333333333  99433.3333333334  3  99999.9999999977
   1350.00000000000  23.1213679817213 -5.495603971894525E-015 -1.643130076445232E-014  245333.333333333  99433.3333333334  3  99999.9999999977
   1360.00000000000  23.1102003576001 -5.495603971894525E-015 -1.643130076445232E-014  245333.333333333  99433.3333333334  3  99999.9999999977
   1370.00000000000  23.0990493246458 -5.495603971894525E-015 -1.643130076445232E-014  245333.333333333  99433.3333333334  3  99999.9999999977
   1380.00000000000  23.0879154112260 -5.495603971894525E-015 -1.643130076445232E-014  245333.333333333  99433.3333333334  3  99999.9999999977
