variables = "time","head","temp",                            "conc","vx","vz","sig_kk","kx"
zone
  1.00000000E+01   -8.73114914E-11    2.24815706E+01    3.00000000E-03    0.00000000E+00    0.00000000E+00   -9.09099740E+00    3.09000000E-02
  2.00000000E+01   -1.74622983E-10    2.24815703E+01    3.00000000E-03   -2.77555756E-16    1.11022302E-15   -3.94063291E+01    3.09000000E-02
  3.00000000E+01   -2.61934474E-10    2.24815688E+01    3.00000000E-03   -5.89805982E-16    1.66533454E-15   -3.94063291E+01    3.09000000E-02
  4.00000000E+01   -3.34694050E-10    2.24815645E+01    3.00000000E-03   -9.54097912E-16    1.38777878E-15   -3.94063291E+01    3.09000000E-02
  5.00000000E+01   -3.92901711E-10    2.24815551E+01    3.00000000E-03   -1.23165367E-15    8.32667268E-16   -3.94063291E+01    3.09000000E-02
  6.00000000E+01   -4.51109372E-10    2.24815375E+01    3.00000000E-03   -1.57859836E-15    2.77555756E-16   -3.94063291E+01    3.09000000E-02
  7.00000000E+01   -5.38420863E-10    2.24815078E+01    3.00000000E-03   -1.83880688E-15   -1.66533454E-15   -3.94063291E+01    3.09000000E-02
  8.00000000E+01   -5.96628524E-10    2.24814615E+01    3.00000000E-03   -2.13370988E-15   -1.94289029E-15   -3.94063291E+01    3.09000000E-02
  9.00000000E+01   -6.54836185E-10    2.24813932E+01    3.00000000E-03   -2.30718222E-15   -3.60822483E-15   -3.94063291E+01    3.09000000E-02
  1.00000000E+02   -6.83940016E-10    2.24812970E+01    3.00000000E-03   -2.60208521E-15   -3.33066907E-15   -3.94063291E+01    3.09000000E-02
  1.10000000E+02   -7.56699592E-10    2.24811667E+01    3.00000000E-03   -2.72351586E-15   -4.71844785E-15   -3.94063291E+01    3.09000000E-02
  1.20000000E+02   -7.85803422E-10    2.24809954E+01    3.00000000E-03   -2.91433544E-15   -4.99600361E-15   -6.80948941E+01    3.09000000E-02
  1.30000000E+02   -8.29459168E-10    2.24807759E+01    3.00000000E-03   -3.12250226E-15   -7.21644966E-15   -6.80948941E+01    3.09000000E-02
  1.40000000E+02   -8.87666829E-10    2.24805008E+01    3.00000000E-03   -3.36536354E-15   -8.32667268E-15   -6.80948941E+01    3.09000000E-02
  1.50000000E+02   -9.16770659E-10    2.24801626E+01    3.00000000E-03   -3.46944695E-15   -8.32667268E-15   -6.80948941E+01    3.09000000E-02
  1.60000000E+02   -9.74978320E-10    2.24797535E+01    3.00000000E-03   -3.64291930E-15   -9.99200722E-15   -6.80948941E+01    3.09000000E-02
  1.70000000E+02   -1.00408215E-09    2.24792658E+01    3.00000000E-03   -3.85108612E-15   -1.05471187E-14   -6.80948941E+01    3.09000000E-02
  1.80000000E+02   -1.03318598E-09    2.24786919E+01    3.00000000E-03   -4.18068358E-15   -1.13797860E-14   -6.80948941E+01    3.09000000E-02
  1.90000000E+02   -1.07684173E-09    2.24780241E+01    3.00000000E-03   -4.31946146E-15   -1.19348975E-14   -6.80948941E+01    3.09000000E-02
  2.00000000E+02   -1.12049747E-09    2.24772550E+01    3.00000000E-03   -4.51028104E-15   -1.27675648E-14   -6.80948941E+01    3.09000000E-02
  2.10000000E+02   -1.14960130E-09    2.24763772E+01    3.00000000E-03   -4.70110062E-15   -1.58206781E-14   -6.80948941E+01    3.09000000E-02
  2.20000000E+02   -1.20780896E-09    2.24753839E+01    3.00000000E-03   -4.80518403E-15   -1.63757896E-14   -1.07642244E+02    3.09000000E-02
  2.30000000E+02   -1.25146471E-09    2.24742681E+01    3.00000000E-03   -4.97865638E-15   -1.74860126E-14   -1.07642244E+02    3.09000000E-02
  2.40000000E+02   -1.28056854E-09    2.24730235E+01    3.00000000E-03   -5.08273978E-15   -1.58206781E-14   -1.07642244E+02    3.09000000E-02
  2.50000000E+02   -1.32422429E-09    2.24716438E+01    3.00000000E-03   -5.20417043E-15   -1.72084569E-14   -1.07642244E+02    3.09000000E-02
  2.60000000E+02   -1.35332812E-09    2.24701232E+01    3.00000000E-03   -5.37764278E-15   -1.83186799E-14   -1.07642244E+02    3.09000000E-02
  2.70000000E+02   -1.38243195E-09    2.24684563E+01    3.00000000E-03   -5.46437895E-15   -1.91513472E-14   -1.07642244E+02    3.09000000E-02
  2.80000000E+02   -1.41153578E-09    2.24666379E+01    3.00000000E-03   -5.51642065E-15   -2.05391260E-14   -1.07642244E+02    3.09000000E-02
  2.90000000E+02   -1.41153578E-09    2.24646633E+01    3.00000000E-03   -5.70724024E-15   -2.08166817E-14   -1.07642244E+02    3.09000000E-02
  3.00000000E+02   -1.44063961E-09    2.24625282E+01    3.00000000E-03   -5.93275429E-15   -2.16493490E-14   -1.07642244E+02    3.09000000E-02
  3.10000000E+02   -1.46974344E-09    2.24602284E+01    3.00000000E-03   -6.07153217E-15   -2.10942375E-14   -1.07642244E+02    3.09000000E-02
  3.20000000E+02   -1.51339918E-09    2.24577604E+01    3.00000000E-03   -6.29704622E-15   -2.24820162E-14   -1.60912962E+02    3.09000000E-02
  3.30000000E+02   -1.55705493E-09    2.24551210E+01    3.00000000E-03   -6.17561557E-15   -2.33146835E-14   -1.60912962E+02    3.09000000E-02
  3.40000000E+02   -1.55705493E-09    2.24523072E+01    3.00000000E-03   -6.27969898E-15   -2.49800181E-14   -1.60912962E+02    3.09000000E-02
  3.50000000E+02   -1.60071068E-09    2.24493166E+01    3.00000000E-03   -6.22765728E-15   -2.58126853E-14   -1.60912962E+02    3.09000000E-02
  3.60000000E+02   -1.62981451E-09    2.24461469E+01    3.00000000E-03   -6.27969898E-15   -2.60902411E-14   -1.60912962E+02    3.09000000E-02
  3.70000000E+02   -1.67347025E-09    2.24427962E+01    3.00000000E-03   -6.43582410E-15   -2.69229083E-14   -1.60912962E+02    3.09000000E-02
  3.80000000E+02   -1.70257408E-09    2.24392632E+01    3.00000000E-03   -6.55725474E-15   -2.72004641E-14   -1.60912962E+02    3.09000000E-02
  3.90000000E+02   -1.73167791E-09    2.24355466E+01    3.00000000E-03   -6.73072709E-15   -2.83106871E-14   -1.60912962E+02    3.09000000E-02
  4.00000000E+02   -1.74622983E-09    2.24316454E+01    3.00000000E-03   -6.74807432E-15   -2.91433544E-14   -1.60912962E+02    3.09000000E-02
  4.10000000E+02   -1.77533366E-09    2.24275592E+01    3.00000000E-03   -6.86950496E-15   -2.99760217E-14   -1.60912962E+02    3.09000000E-02
  4.20000000E+02   -1.78988557E-09    2.24232875E+01    3.00000000E-03   -7.11236625E-15   -2.94209102E-14   -2.00650480E+02    3.09000000E-02
  4.30000000E+02   -1.80443749E-09    2.24188305E+01    3.00000000E-03   -7.14706072E-15   -3.10862447E-14   -2.00650480E+02    3.09000000E-02
  4.40000000E+02   -1.83354132E-09    2.24141881E+01    3.00000000E-03   -7.28583860E-15   -3.16413562E-14   -2.00650480E+02    3.09000000E-02
  4.50000000E+02   -1.86264515E-09    2.24093610E+01    3.00000000E-03   -7.40726924E-15   -3.02535774E-14   -2.00650480E+02    3.09000000E-02
  4.60000000E+02   -1.87719706E-09    2.24043497E+01    3.00000000E-03   -7.56339436E-15   -3.21964677E-14   -2.00650480E+02    3.09000000E-02
  4.70000000E+02   -1.89174898E-09    2.23991553E+01    3.00000000E-03   -7.70217223E-15   -3.27515792E-14   -2.00650480E+02    3.09000000E-02
  4.80000000E+02   -1.93540473E-09    2.23937787E+01    3.00000000E-03   -7.73686670E-15   -3.21964677E-14   -2.00650480E+02    3.09000000E-02
  4.90000000E+02   -1.96450856E-09    2.23882213E+01    3.00000000E-03   -7.85829735E-15   -3.35842465E-14   -2.00650480E+02    3.09000000E-02
  5.00000000E+02   -1.96450856E-09    2.23824845E+01    3.00000000E-03   -7.96238075E-15   -3.46944695E-14   -2.00650480E+02    3.09000000E-02
  5.10000000E+02   -1.96450856E-09    2.23765700E+01    3.00000000E-03   -7.97972799E-15   -3.49720253E-14   -2.00650480E+02    3.09000000E-02
  5.20000000E+02   -1.99361239E-09    2.23704795E+01    3.00000000E-03   -7.97972799E-15   -3.49720253E-14   -2.37043492E+02    3.09000000E-02
  5.30000000E+02   -2.00816430E-09    2.23642151E+01    3.00000000E-03   -8.11850587E-15   -3.49720253E-14   -2.37043492E+02    3.09000000E-02
  5.40000000E+02   -2.02271622E-09    2.23577786E+01    3.00000000E-03   -8.29197822E-15   -3.66373598E-14   -2.37043492E+02    3.09000000E-02
  5.50000000E+02   -2.08092388E-09    2.23511724E+01    3.00000000E-03   -8.39606162E-15   -3.60822483E-14   -2.37043492E+02    3.09000000E-02
  5.60000000E+02   -2.09547579E-09    2.23443988E+01    3.00000000E-03   -8.51749227E-15   -3.63598041E-14   -2.37043492E+02    3.09000000E-02
  5.70000000E+02   -2.12457962E-09    2.23374600E+01    3.00000000E-03   -8.58688121E-15   -3.69149156E-14   -2.37043492E+02    3.09000000E-02
  5.80000000E+02   -2.13913154E-09    2.23303587E+01    3.00000000E-03   -8.69096461E-15   -3.69149156E-14   -2.37043492E+02    3.09000000E-02
  5.90000000E+02   -2.15368345E-09    2.23230973E+01    3.00000000E-03   -8.81239526E-15   -3.83026943E-14   -2.37043492E+02    3.09000000E-02
  6.00000000E+02   -2.16823537E-09    2.23156786E+01    3.00000000E-03   -8.91647867E-15   -3.88578059E-14   -2.37043492E+02    3.09000000E-02
  6.10000000E+02   -2.19733920E-09    2.23081052E+01    3.00000000E-03   -8.98586761E-15   -3.83026943E-14   -2.37043492E+02    3.09000000E-02
  6.20000000E+02   -2.22644303E-09    2.23003800E+01    3.00000000E-03   -9.08995101E-15   -3.83026943E-14   -2.97395724E+02    3.09000000E-02
  6.30000000E+02   -2.24099495E-09    2.22925057E+01    3.00000000E-03   -9.08995101E-15   -3.83026943E-14   -2.97395724E+02    3.09000000E-02
  6.40000000E+02   -2.25554686E-09    2.22844852E+01    3.00000000E-03   -9.08995101E-15   -3.94129174E-14   -2.97395724E+02    3.09000000E-02
  6.50000000E+02   -2.27009878E-09    2.22763215E+01    3.00000000E-03   -9.05525654E-15   -3.94129174E-14   -2.97395724E+02    3.09000000E-02
  6.60000000E+02   -2.27009878E-09    2.22680175E+01    3.00000000E-03   -9.05525654E-15   -4.10782519E-14   -2.97395724E+02    3.09000000E-02
  6.70000000E+02   -2.28465069E-09    2.22595761E+01    3.00000000E-03   -9.19403442E-15   -4.10782519E-14   -2.97395724E+02    3.09000000E-02
  6.80000000E+02   -2.28465069E-09    2.22510003E+01    3.00000000E-03   -9.31546507E-15   -4.19109192E-14   -2.97395724E+02    3.09000000E-02
  6.90000000E+02   -2.28465069E-09    2.22422932E+01    3.00000000E-03   -9.31546507E-15   -4.19109192E-14   -2.97395724E+02    3.09000000E-02
  7.00000000E+02   -2.28465069E-09    2.22334577E+01    3.00000000E-03   -9.31546507E-15   -4.19109192E-14   -2.97395724E+02    3.09000000E-02
  7.10000000E+02   -2.31375452E-09    2.22244970E+01    3.00000000E-03   -9.21138166E-15   -4.13558077E-14   -2.97395724E+02    3.09000000E-02
  7.20000000E+02   -2.34285835E-09    2.22154139E+01    3.00000000E-03   -9.12464548E-15   -4.27435864E-14   -3.37714584E+02    3.09000000E-02
  7.30000000E+02   -2.37196218E-09    2.22062116E+01    3.00000000E-03   -9.10729825E-15   -4.19109192E-14   -3.37714584E+02    3.09000000E-02
  7.40000000E+02   -2.38651410E-09    2.21968930E+01    3.00000000E-03   -9.19403442E-15   -4.21884749E-14   -3.37714584E+02    3.09000000E-02
  7.50000000E+02   -2.40106601E-09    2.21874611E+01    3.00000000E-03   -9.10729825E-15   -4.30211422E-14   -3.37714584E+02    3.09000000E-02
  7.60000000E+02   -2.41561793E-09    2.21779191E+01    3.00000000E-03   -9.07260378E-15   -4.46864767E-14   -3.37714584E+02    3.09000000E-02
  7.70000000E+02   -2.41561793E-09    2.21682697E+01    3.00000000E-03   -9.10729825E-15   -4.41313652E-14   -3.37714584E+02    3.09000000E-02
  7.80000000E+02   -2.43016984E-09    2.21585160E+01    3.00000000E-03   -9.19403442E-15   -4.49640325E-14   -3.37714584E+02    3.09000000E-02
  7.90000000E+02   -2.45927367E-09    2.21486610E+01    3.00000000E-03   -9.10729825E-15   -4.46864767E-14   -3.37714584E+02    3.09000000E-02
  8.00000000E+02   -2.48837750E-09    2.21387075E+01    3.00000000E-03   -9.17668719E-15   -4.52415883E-14   -3.37714584E+02    3.09000000E-02
  8.10000000E+02   -2.48837750E-09    2.21286584E+01    3.00000000E-03   -9.28077060E-15   -4.46864767E-14   -3.37714584E+02    3.09000000E-02
  8.20000000E+02   -2.51748133E-09    2.21185167E+01    3.00000000E-03   -9.41954847E-15   -4.46864767E-14   -3.62145807E+02    3.09000000E-02
  8.30000000E+02   -2.53203325E-09    2.21082851E+01    3.00000000E-03   -9.43689571E-15   -4.55191440E-14   -3.62145807E+02    3.09000000E-02
  8.40000000E+02   -2.54658516E-09    2.20979664E+01    3.00000000E-03   -9.43689571E-15   -4.60742555E-14   -3.62145807E+02    3.09000000E-02
  8.50000000E+02   -2.54658516E-09    2.20875634E+01    3.00000000E-03   -9.43689571E-15   -4.60742555E-14   -3.62145807E+02    3.09000000E-02
  8.60000000E+02   -2.54658516E-09    2.20770788E+01    3.00000000E-03   -9.45424294E-15   -4.63518113E-14   -3.62145807E+02    3.09000000E-02
  8.70000000E+02   -2.54658516E-09    2.20665154E+01    3.00000000E-03   -9.52363188E-15   -4.74620343E-14   -3.62145807E+02    3.09000000E-02
  8.80000000E+02   -2.54658516E-09    2.20558758E+01    3.00000000E-03   -9.55832635E-15   -4.74620343E-14   -3.62145807E+02    3.09000000E-02
  8.90000000E+02   -2.54658516E-09    2.20451626E+01    3.00000000E-03   -9.66240976E-15   -4.80171458E-14   -3.62145807E+02    3.09000000E-02
  9.00000000E+02   -2.54658516E-09    2.20343785E+01    3.00000000E-03   -9.69710423E-15   -4.80171458E-14   -3.62145807E+02    3.09000000E-02
  9.10000000E+02   -2.57568900E-09    2.20235259E+01    3.00000000E-03   -9.73179870E-15   -4.91273688E-14   -3.62145807E+02    3.09000000E-02
  9.20000000E+02   -2.57568900E-09    2.20126075E+01    3.00000000E-03   -9.73179870E-15   -4.74620343E-14   -4.24396815E+02    3.09000000E-02
  9.30000000E+02   -2.57568900E-09    2.20016255E+01    3.00000000E-03   -9.73179870E-15   -4.74620343E-14   -4.24396815E+02    3.09000000E-02
  9.40000000E+02   -2.57568900E-09    2.19905826E+01    3.00000000E-03   -9.73179870E-15   -4.74620343E-14   -4.24396815E+02    3.09000000E-02
  9.50000000E+02   -2.57568900E-09    2.19794811E+01    3.00000000E-03   -9.73179870E-15   -4.74620343E-14   -4.24396815E+02    3.09000000E-02
  9.60000000E+02   -2.57568900E-09    2.19683232E+01    3.00000000E-03   -9.73179870E-15   -4.74620343E-14   -4.24396815E+02    3.09000000E-02
  9.70000000E+02   -2.57568900E-09    2.19571114E+01    3.00000000E-03   -9.73179870E-15   -4.91273688E-14   -4.24396815E+02    3.09000000E-02
  9.80000000E+02   -2.60479283E-09    2.19458480E+01    3.00000000E-03   -9.73179870E-15   -4.96824804E-14   -4.24396815E+02    3.09000000E-02
  9.90000000E+02   -2.63389666E-09    2.19345350E+01    3.00000000E-03   -9.67975700E-15   -5.10702591E-14   -4.24396815E+02    3.09000000E-02
  1.00000000E+03   -2.64844857E-09    2.19231747E+01    3.00000000E-03   -9.80118764E-15   -4.96824804E-14   -4.24396815E+02    3.09000000E-02
  1.01000000E+03   -2.67755240E-09    2.19117693E+01    3.00000000E-03   -9.80118764E-15   -5.02375919E-14   -4.24396815E+02    3.09000000E-02
  1.02000000E+03   -2.67755240E-09    2.19003209E+01    3.00000000E-03   -9.80118764E-15   -5.07927034E-14   -4.59765449E+02    3.09000000E-02
  1.03000000E+03   -2.67755240E-09    2.18888314E+01    3.00000000E-03   -9.80118764E-15   -5.07927034E-14   -4.59765449E+02    3.09000000E-02
  1.04000000E+03   -2.67755240E-09    2.18773030E+01    3.00000000E-03   -9.80118764E-15   -5.07927034E-14   -4.59765449E+02    3.09000000E-02
  1.05000000E+03   -2.69210432E-09    2.18657375E+01    3.00000000E-03   -9.80118764E-15   -5.07927034E-14   -4.59765449E+02    3.09000000E-02
  1.06000000E+03   -2.69210432E-09    2.18541370E+01    3.00000000E-03   -9.78384040E-15   -5.16253706E-14   -4.59765449E+02    3.09000000E-02
  1.07000000E+03   -2.69210432E-09    2.18425033E+01    3.00000000E-03   -9.62771529E-15   -5.13478149E-14   -4.59765449E+02    3.09000000E-02
  1.08000000E+03   -2.69210432E-09    2.18308383E+01    3.00000000E-03   -9.54097912E-15   -5.21804822E-14   -4.59765449E+02    3.09000000E-02
  1.09000000E+03   -2.72120815E-09    2.18191438E+01    3.00000000E-03   -9.48893741E-15   -5.24580379E-14   -4.59765449E+02    3.09000000E-02
  1.10000000E+03   -2.75031198E-09    2.18074216E+01    3.00000000E-03   -9.41954847E-15   -5.24580379E-14   -4.59765449E+02    3.09000000E-02
  1.11000000E+03   -2.77941581E-09    2.17956733E+01    3.00000000E-03   -9.28077060E-15   -5.13478149E-14   -4.59765449E+02    3.09000000E-02
  1.12000000E+03   -2.80851964E-09    2.17839008E+01    3.00000000E-03   -9.26342336E-15   -5.27355937E-14   -4.68060155E+02    3.09000000E-02
  1.13000000E+03   -2.80851964E-09    2.17721056E+01    3.00000000E-03   -9.26342336E-15   -5.16253706E-14   -4.68060155E+02    3.09000000E-02
  1.14000000E+03   -2.80851964E-09    2.17602894E+01    3.00000000E-03   -9.22872889E-15   -5.16253706E-14   -4.68060155E+02    3.09000000E-02
  1.15000000E+03   -2.80851964E-09    2.17484538E+01    3.00000000E-03   -9.12464548E-15   -5.16253706E-14   -4.68060155E+02    3.09000000E-02
  1.16000000E+03   -2.80851964E-09    2.17366003E+01    3.00000000E-03   -9.12464548E-15   -5.16253706E-14   -4.68060155E+02    3.09000000E-02
  1.17000000E+03   -2.82307155E-09    2.17247304E+01    3.00000000E-03   -9.12464548E-15   -5.16253706E-14   -4.68060155E+02    3.09000000E-02
  1.18000000E+03   -2.82307155E-09    2.17128456E+01    3.00000000E-03   -9.05525654E-15   -5.32907052E-14   -4.68060155E+02    3.09000000E-02
  1.19000000E+03   -2.82307155E-09    2.17009473E+01    3.00000000E-03   -8.96852037E-15   -5.41233725E-14   -4.68060155E+02    3.09000000E-02
  1.20000000E+03   -2.82307155E-09    2.16890369E+01    3.00000000E-03   -8.93382590E-15   -5.41233725E-14   -4.68060155E+02    3.09000000E-02
  1.21000000E+03   -2.82307155E-09    2.16771159E+01    3.00000000E-03   -8.93382590E-15   -5.41233725E-14   -4.68060155E+02    3.09000000E-02
  1.22000000E+03   -2.82307155E-09    2.16651855E+01    3.00000000E-03   -8.93382590E-15   -5.41233725E-14   -5.29721378E+02    3.09000000E-02
  1.23000000E+03   -2.82307155E-09    2.16532470E+01    3.00000000E-03   -8.93382590E-15   -5.41233725E-14   -5.29721378E+02    3.09000000E-02
  1.24000000E+03   -2.82307155E-09    2.16413018E+01    3.00000000E-03   -8.93382590E-15   -5.41233725E-14   -5.29721378E+02    3.09000000E-02
  1.25000000E+03   -2.82307155E-09    2.16293510E+01    3.00000000E-03   -8.93382590E-15   -5.41233725E-14   -5.29721378E+02    3.09000000E-02
  1.26000000E+03   -2.82307155E-09    2.16173958E+01    3.00000000E-03   -8.93382590E-15   -5.41233725E-14   -5.29721378E+02    3.09000000E-02
  1.27000000E+03   -2.85217538E-09    2.16054375E+01    3.00000000E-03   -8.93382590E-15   -5.41233725E-14   -5.29721378E+02    3.09000000E-02
  1.28000000E+03   -2.86672730E-09    2.15934771E+01    3.00000000E-03   -8.93382590E-15   -5.35682609E-14   -5.29721378E+02    3.09000000E-02
  1.29000000E+03   -2.89583113E-09    2.15815159E+01    3.00000000E-03   -8.93382590E-15   -5.41233725E-14   -5.29721378E+02    3.09000000E-02
  1.30000000E+03   -2.89583113E-09    2.15695548E+01    3.00000000E-03   -8.93382590E-15   -5.46784840E-14   -5.29721378E+02    3.09000000E-02
  1.31000000E+03   -2.89583113E-09    2.15575950E+01    3.00000000E-03   -8.93382590E-15   -5.46784840E-14   -5.29721378E+02    3.09000000E-02
  1.32000000E+03   -2.89583113E-09    2.15456374E+01    3.00000000E-03   -8.93382590E-15   -5.46784840E-14   -5.55458389E+02    3.09000000E-02
  1.33000000E+03   -2.89583113E-09    2.15336830E+01    3.00000000E-03   -8.93382590E-15   -5.46784840E-14   -5.55458389E+02    3.09000000E-02
  1.34000000E+03   -2.89583113E-09    2.15217329E+01    3.00000000E-03   -8.93382590E-15   -5.46784840E-14   -5.55458389E+02    3.09000000E-02
  1.35000000E+03   -2.89583113E-09    2.15097880E+01    3.00000000E-03   -8.93382590E-15   -5.46784840E-14   -5.55458389E+02    3.09000000E-02
  1.36000000E+03   -2.89583113E-09    2.14978491E+01    3.00000000E-03   -8.93382590E-15   -5.46784840E-14   -5.55458389E+02    3.09000000E-02
  1.37000000E+03   -2.89583113E-09    2.14859173E+01    3.00000000E-03   -8.93382590E-15   -5.46784840E-14   -5.55458389E+02    3.09000000E-02
  1.38000000E+03   -2.89583113E-09    2.14739933E+01    3.00000000E-03   -8.93382590E-15   -5.46784840E-14   -5.55458389E+02    3.09000000E-02
  1.39000000E+03   -2.89583113E-09    2.14620780E+01    3.00000000E-03   -8.93382590E-15   -5.46784840E-14   -5.55458389E+02    3.09000000E-02
